"0.0","405.0","409.0","408.0","407.0","406.0","407.0","404.0","395.0","391.0","391.0","385.0","390.0","406.0","407.0","394.0","393.0","405.0","408.0","401.0","396.0","386.0","381.0","380.0","379.0","381.0","401.0","411.0","404.0","387.0","383.0","378.0","379.0","381.0","381.0","383.0","388.0","398.0","389.0","385.0","388.0","388.0","393.0","391.0","393.0","396.0","392.0","383.0","380.0","391.0","399.0","396.0","395.0","393.0","395.0","397.0","383.0","384.0","379.0","367.0","369.0","382.0","386.0","385.0","391.0","397.0","401.0","400.0","400.0","402.0","407.0","408.0","400.0","398.0","401.0","406.0","401.0","399.0","394.0","395.0","386.0","377.0","370.0","366.0","371.0","385.0","388.0","385.0","383.0","392.0","404.0","414.0","391.0","373.0","366.0","371.0","383.0","388.0","390.0","394.0","397.0","395.0","390.0","386.0","379.0","371.0","369.0","376.0","394.0","416.0","446.0","488.0","530.0","577.0","616.0","627.0","594.0","524.0","450.0","388.0","346.0","319.0","305.0","299.0","299.0","309.0","323.0","334.0","338.0","346.0","358.0","369.0","372.0","365.0","357.0","367.0","374.0","377.0","380.0","379.0","372.0","377.0","376.0","378.0","385.0","389.0","392.0","400.0","391.0","393.0","396.0","398.0","401.0","387.0","377.0","381.0","398.0","407.0","404.0","404.0","399.0","404.0","412.0","414.0","404.0","399.0","401.0","409.0","409.0","429.0","425.0","424.0","430.0","436.0","437.0","443.0","446.0","442.0","433.0","437.0","442.0","441.0","435.0","429.0","426.0","422.0","421.0","422.0","418.0","404.0","396.0","402.0","395.0","387.0","375.0","376.0","379.0","383.0","381.0","368.0","370.0","375.0","360.0","350.0","352.0","353.0","349.0","349.0","344.0","343.0","347.0","352.0","362.0","372.0","361.0","365.0","365.0","368.0","376.0","374.0","370.0","366.0","368.0","371.0","367.0","381.0","376.0","377.0","376.0","372.0","374.0","377.0","380.0","383.0","380.0","382.0","375.0","376.0","389.0","403.0","405.0","399.0","395.0","392.0","385.0","382.0","381.0","383.0","387.0","391.0","391.0","391.0","379.0","365.0","359.0","356.0","349.0","365.0","368.0","378.0","383.0","390.0","397.0","401.0","397.0","392.0","385.0","388.0","391.0","392.0","395.0","391.0","382.0","373.0","373.0","379.0","383.0","392.0","394.0","383.0","369.0","374.0","377.0","383.0","395.0","396.0","386.0","380.0","380.0","380.0","379.0","383.0","383.0","386.0","394.0","397.0","392.0","387.0","388.0","382.0","372.0","371.0","381.0","385.0","380.0","378.0","390.0","396.0","392.0","385.0","383.0","386.0","390.0","396.0","390.0","396.0","411.0","421.0","424.0","409.0","398.0","390.0","387.0","395.0","397.0","396.0","396.0","386.0","375.0","363.0","368.0","377.0","388.0","399.0","396.0","391.0","383.0","379.0","373.0","373.0","374.0","384.0","387.0","388.0","390.0","390.0","381.0","380.0","390.0","395.0","391.0","386.0","382.0","379.0","384.0","391.0","412.0","450.0","495.0","537.0","576.0","614.0","626.0","595.0","537.0","472.0","410.0","358.0","320.0","298.0","307.0","319.0","328.0","331.0","331.0","333.0","334.0","334.0","337.0","346.0","354.0","357.0","359.0","360.0","362.0","354.0","360.0","371.0","379.0","387.0","391.0","385.0","384.0","381.0","389.0","396.0","393.0","387.0","381.0","377.0","377.0","384.0","379.0","378.0","382.0","390.0","401.0","404.0","404.0","400.0","402.0","394.0","399.0","412.0","420.0","423.0","429.0","426.0","423.0","429.0","418.0","410.0","414.0","426.0","431.0","443.0","449.0","445.0","432.0","426.0","426.0","426.0","432.0","437.0","435.0","425.0","413.0","403.0","395.0","392.0","399.0","393.0","386.0","378.0","371.0","368.0","358.0","355.0","361.0","364.0","362.0","359.0","355.0","352.0","359.0","370.0","370.0","375.0","363.0","360.0","365.0","369.0","374.0","377.0","372.0","370.0","377.0","374.0","367.0","363.0","358.0","351.0","356.0","371.0","369.0","371.0","379.0","384.0","391.0","389.0","384.0","373.0","385.0","389.0","389.0","390.0","385.0","378.0","375.0","378.0","390.0","399.0","402.0","401.0","402.0","397.0","386.0","382.0","379.0","388.0","399.0","402.0","400.0","399.0","392.0","387.0","388.0","387.0","387.0","386.0","384.0","382.0","386.0","395.0","401.0","398.0","393.0","390.0","386.0","386.0","386.0","386.0","382.0","376.0","372.0","379.0","399.0","403.0","403.0","395.0","386.0","381.0","377.0","375.0","385.0","389.0","395.0","394.0","404.0","408.0","405.0","401.0","379.0","379.0","393.0","402.0","394.0","388.0","378.0","372.0","370.0","376.0","380.0","383.0","392.0","402.0","406.0","404.0","396.0","395.0","383.0","369.0","374.0","381.0","388.0","390.0","394.0","402.0","413.0","408.0","405.0","405.0","408.0","405.0","400.0","395.0","385.0","382.0","384.0","384.0","381.0","381.0","382.0","384.0","384.0","384.0","382.0","373.0","372.0","379.0","382.0","383.0","388.0","392.0","400.0","404.0","390.0","383.0","400.0","400.0","390.0","379.0","369.0","367.0","376.0","400.0","432.0","475.0","525.0","570.0","609.0","641.0","647.0","606.0","536.0","460.0","393.0","345.0","308.0","301.0","304.0","309.0","323.0","330.0","335.0","339.0","336.0","342.0","347.0","357.0","361.0","364.0","373.0","367.0","365.0","364.0","364.0","366.0","367.0","365.0","368.0","381.0","395.0","397.0","393.0","392.0","387.0","383.0","380.0","386.0","395.0","390.0","383.0","383.0","384.0","387.0","388.0","391.0","401.0","403.0","411.0","417.0","410.0","401.0","396.0","399.0","407.0","412.0","410.0","420.0","421.0","418.0","428.0","433.0","439.0","448.0","453.0","460.0","458.0","457.0","439.0","430.0","429.0","423.0","425.0","423.0","427.0","414.0","413.0","414.0","405.0","396.0","393.0","385.0","378.0","371.0","364.0","362.0","360.0","353.0","357.0","373.0","371.0","373.0","373.0","373.0","369.0","356.0","354.0","360.0","368.0","378.0","382.0","378.0","379.0","375.0","374.0","369.0","369.0","377.0","381.0","383.0","384.0","380.0","368.0","368.0","376.0","384.0","386.0","381.0","383.0","389.0","395.0","394.0","386.0","383.0","390.0","387.0","386.0","391.0","390.0","388.0","382.0","383.0","386.0","391.0","394.0","391.0","396.0","397.0","386.0","377.0","381.0","383.0","373.0","374.0","376.0","381.0","386.0","390.0","388.0","393.0","394.0","392.0","395.0","396.0","388.0","378.0","376.0","374.0","367.0","369.0","376.0","378.0","379.0","383.0","382.0","386.0","390.0","383.0","396.0","393.0","394.0","390.0","387.0","395.0","395.0","398.0","390.0","376.0","376.0","385.0","389.0","388.0","383.0","375.0","379.0","385.0","391.0","386.0","384.0","381.0","371.0","376.0","391.0","399.0","394.0","390.0","388.0","395.0","392.0","382.0","375.0","375.0","381.0","381.0","372.0","374.0","385.0","400.0","404.0","403.0","407.0","408.0","417.0","414.0","405.0","395.0","392.0","399.0","397.0","400.0","395.0","386.0","383.0","381.0","384.0","382.0","379.0","377.0","374.0","379.0","387.0","398.0","396.0","381.0","378.0","391.0","393.0","393.0","394.0","396.0","391.0","377.0","379.0","387.0","391.0","381.0","383.0","387.0","392.0","411.0","457.0","513.0","570.0","618.0","651.0","660.0","624.0","554.0","475.0","407.0","344.0","303.0","290.0","294.0","305.0","317.0","331.0","331.0","342.0","350.0","351.0","352.0","353.0","362.0","368.0","367.0","368.0","365.0","370.0","369.0","368.0","375.0","382.0","378.0","374.0","366.0","366.0","369.0","380.0","386.0","392.0","399.0","397.0","402.0","389.0","388.0","392.0","394.0","400.0","391.0","386.0","390.0","395.0","403.0","405.0","401.0","400.0","401.0","410.0","421.0","428.0","431.0","426.0","417.0","413.0","430.0","429.0","439.0","449.0","446.0","439.0","429.0","424.0","425.0","427.0","427.0","424.0","417.0","411.0","408.0","415.0","405.0","401.0","406.0","404.0","393.0","374.0","367.0","361.0","358.0","365.0","374.0","377.0","366.0","362.0","368.0","374.0","377.0","370.0","368.0","361.0","357.0","357.0","363.0","369.0","372.0","373.0","373.0","379.0","385.0","381.0","377.0","385.0","384.0","381.0","376.0","376.0","376.0","377.0","384.0","392.0","386.0","380.0","380.0","381.0","373.0","378.0","391.0","399.0","400.0","389.0","386.0","384.0","381.0","382.0","395.0","404.0","401.0","390.0","382.0","388.0","395.0","384.0","365.0","362.0","371.0","389.0","400.0","409.0","409.0","391.0","385.0","392.0","384.0","377.0","370.0","374.0","379.0","376.0","378.0","378.0","375.0","377.0","387.0","390.0","386.0","384.0","385.0","380.0","382.0","379.0","370.0","373.0","378.0","382.0","388.0","384.0","376.0","374.0","385.0","390.0","388.0","383.0","380.0","381.0","382.0","384.0","389.0","390.0","390.0","392.0","391.0","390.0","397.0","404.0","410.0","413.0","417.0","417.0","408.0","401.0","397.0","391.0","384.0","379.0","374.0","372.0","375.0","383.0","388.0","380.0","380.0","386.0","379.0","379.0","388.0","387.0","380.0","377.0","376.0","373.0","371.0","366.0","372.0","370.0","369.0","376.0","375.0","370.0","370.0","378.0","372.0","362.0","369.0","383.0","410.0","442.0","494.0","550.0","594.0","634.0","651.0","612.0","547.0","471.0","400.0","346.0","303.0","273.0","263.0","273.0","292.0","311.0","331.0","343.0","358.0","355.0","350.0","365.0","358.0","363.0","374.0","380.0","386.0","386.0","386.0","386.0","382.0","377.0","370.0","379.0","383.0","385.0","389.0","389.0","395.0","401.0","406.0","403.0","400.0","388.0","377.0","370.0","383.0","385.0","395.0","411.0","420.0","419.0","414.0","409.0","413.0","420.0","433.0","425.0","424.0","427.0","425.0","421.0","415.0","418.0","416.0","422.0","433.0","434.0","433.0","437.0","437.0","437.0","434.0","434.0","434.0","436.0","438.0","430.0","418.0","411.0","398.0","387.0","388.0","399.0","382.0","380.0","380.0","375.0","369.0","366.0","359.0","353.0","349.0","356.0","366.0","375.0","378.0","374.0","358.0","347.0","344.0","358.0","371.0","372.0","369.0","367.0","360.0","354.0","357.0","354.0","358.0","369.0","382.0","390.0","388.0","386.0","392.0","392.0","385.0","371.0","361.0","360.0","373.0","382.0","389.0","397.0","401.0","402.0","396.0","389.0","383.0","381.0","383.0","384.0","387.0","395.0","396.0","390.0","389.0","387.0","389.0","389.0","395.0","396.0","393.0","397.0","383.0","384.0","382.0","382.0","383.0","381.0","381.0","382.0","382.0","383.0","386.0","383.0","389.0","393.0","390.0","390.0","398.0","397.0","386.0","376.0","377.0","387.0","390.0","388.0","385.0","380.0","388.0","386.0","388.0","380.0","383.0","394.0","418.0","429.0","420.0","409.0","406.0","398.0","386.0","385.0","391.0","385.0","377.0","380.0","393.0","391.0","380.0","368.0","360.0","357.0","362.0","367.0","377.0","384.0","387.0","390.0","387.0","392.0","397.0","387.0","391.0","392.0","383.0","377.0","364.0","363.0","370.0","375.0","385.0","414.0","457.0","505.0","556.0","598.0","630.0","631.0","594.0","526.0","449.0","387.0","335.0","296.0","271.0","261.0","274.0","298.0","316.0","327.0","338.0","342.0","340.0","348.0","364.0","375.0","384.0","386.0","385.0","384.0","384.0","392.0","392.0","388.0","386.0","379.0","372.0","374.0","378.0","379.0","379.0","378.0","383.0","385.0","386.0","397.0","394.0","403.0","408.0","402.0","399.0","389.0","387.0","393.0","395.0","396.0","393.0","395.0","407.0","421.0","421.0","419.0","409.0","403.0","409.0","423.0","425.0","431.0","437.0","438.0","436.0","441.0","432.0","426.0","425.0","428.0","429.0","429.0","428.0","422.0","418.0","413.0","408.0","400.0","401.0","405.0","404.0","394.0","381.0","379.0","382.0","379.0","372.0","368.0","357.0","357.0","358.0","359.0","367.0","363.0","362.0","362.0","360.0","362.0","361.0","357.0","361.0","361.0","364.0","369.0","368.0","364.0","367.0","368.0","363.0","367.0","377.0","384.0","385.0","375.0","381.0","382.0","381.0","384.0","380.0","379.0","378.0","376.0","376.0","383.0","393.0","389.0","382.0","384.0","388.0","387.0","390.0","389.0","387.0","386.0","396.0","392.0","395.0","398.0","391.0","388.0","386.0","385.0","379.0","366.0","371.0","373.0","373.0","370.0","380.0","388.0","394.0","393.0","396.0","396.0","394.0","402.0","401.0","392.0","388.0","389.0","382.0","385.0","390.0","388.0","382.0","378.0","378.0","381.0","381.0","394.0","401.0","413.0","418.0","422.0","418.0","399.0","383.0","376.0","380.0","386.0","391.0","394.0","391.0","380.0","368.0","368.0","372.0","376.0","384.0","381.0","373.0","376.0","386.0","386.0","381.0","375.0","376.0","376.0","381.0","387.0","392.0","385.0","381.0","381.0","388.0","385.0","406.0","440.0","474.0","513.0","549.0","595.0","627.0","618.0","578.0","510.0","437.0","378.0","327.0","293.0","288.0","301.0","309.0","317.0","324.0","332.0","337.0","347.0","357.0","365.0","376.0","385.0","369.0","358.0","350.0","343.0","351.0","356.0","373.0","383.0","388.0","390.0","391.0","391.0","394.0","391.0","394.0","387.0","379.0","375.0","369.0","374.0","377.0","393.0","398.0","394.0","384.0","374.0","377.0","394.0","410.0","421.0","413.0","414.0","412.0","408.0","418.0","415.0","422.0","428.0","433.0","440.0","422.0","422.0","423.0","424.0","432.0","423.0","424.0","424.0","428.0","435.0","429.0","413.0","403.0","414.0","431.0","425.0","418.0","409.0","402.0","397.0","385.0","374.0","366.0","359.0","359.0","358.0","366.0","371.0","374.0","369.0","364.0","364.0","367.0","369.0","365.0","360.0","359.0","360.0","358.0","360.0","369.0","367.0","368.0","368.0","369.0","379.0","384.0","382.0","382.0","379.0","374.0","372.0","375.0","388.0","391.0","389.0","389.0","397.0","399.0","394.0","383.0","378.0","376.0","373.0","380.0","383.0","381.0","381.0","385.0","391.0","392.0","381.0","382.0","392.0","391.0","393.0","387.0","375.0","381.0","396.0","400.0","393.0","389.0","387.0","387.0","393.0","387.0","378.0","378.0","375.0","379.0","388.0","391.0","382.0","371.0","380.0","390.0","390.0","387.0","382.0","382.0","383.0","398.0","406.0","412.0","414.0","403.0","405.0","408.0","398.0","386.0","388.0","388.0","382.0","377.0","375.0","375.0","370.0","371.0","376.0","383.0","387.0","383.0","384.0","398.0","403.0","399.0","388.0","378.0","375.0","381.0","387.0","381.0","371.0","361.0","361.0","366.0","382.0","383.0","377.0","381.0","384.0","386.0","401.0","430.0","479.0","539.0","597.0","639.0","654.0","639.0","584.0","513.0","434.0","373.0","326.0","296.0","282.0","280.0","295.0","314.0","329.0","336.0","337.0","338.0","342.0","351.0","359.0","363.0","362.0","358.0","360.0","368.0","379.0","383.0","375.0","375.0","369.0","370.0","373.0","374.0","373.0","366.0","373.0","380.0","380.0","385.0","388.0","388.0","390.0","400.0","400.0","383.0","378.0","382.0","388.0","407.0","416.0","412.0","406.0","407.0","414.0","417.0","419.0","424.0","428.0","427.0","425.0","427.0","430.0","435.0","435.0","435.0","431.0","423.0","414.0","413.0","421.0","427.0","432.0","432.0","432.0","417.0","420.0","419.0","409.0","404.0","398.0","391.0","390.0","392.0","381.0","372.0","366.0","368.0","360.0","357.0","361.0","370.0","370.0","366.0","361.0","360.0","359.0","365.0","362.0","366.0","377.0","381.0","369.0","364.0","361.0","366.0","374.0","374.0","375.0","373.0","377.0","378.0","372.0","377.0","380.0","380.0","382.0","384.0","388.0","387.0","386.0","388.0","383.0","381.0","388.0","396.0","402.0","395.0","385.0","377.0","377.0","373.0","375.0","383.0","381.0","379.0","378.0","384.0","387.0","380.0","377.0","381.0","387.0","391.0","393.0","394.0","389.0","387.0","395.0","400.0","396.0","386.0","384.0","390.0","380.0","387.0","391.0","395.0","400.0","392.0","385.0","380.0","380.0","380.0","388.0","391.0","397.0","391.0","371.0","360.0","359.0","370.0","383.0","387.0","383.0","377.0","379.0","387.0","400.0","407.0","403.0","396.0","392.0","388.0","392.0","384.0","375.0","374.0","376.0","377.0","379.0","371.0","381.0","390.0","391.0","385.0","386.0","386.0","393.0","405.0","412.0","406.0","408.0","414.0","422.0","412.0","396.0","388.0","392.0","397.0","404.0","406.0","403.0","403.0","403.0","392.0","377.0","371.0","375.0","375.0","384.0","399.0","393.0","381.0","374.0","376.0","377.0","380.0","372.0","373.0","383.0","391.0","407.0","404.0","402.0","392.0","382.0","369.0","368.0","374.0","401.0","441.0","489.0","541.0","592.0","631.0","651.0","644.0","589.0","511.0","440.0","377.0","327.0","308.0","305.0","307.0","319.0","329.0","331.0","333.0","334.0","333.0","340.0","345.0","354.0","361.0","365.0","365.0","361.0","365.0","371.0","380.0","386.0","391.0","380.0","371.0","374.0","372.0","369.0","374.0","381.0","385.0","388.0","388.0","389.0","389.0","392.0","398.0","398.0","393.0","393.0","394.0","400.0","402.0","402.0","403.0","399.0","389.0","394.0","400.0","413.0","420.0","427.0","432.0","433.0","432.0","434.0","432.0","425.0","421.0","428.0","437.0","437.0","432.0","429.0","427.0","437.0","436.0","424.0","414.0","409.0","411.0","408.0","404.0","409.0","411.0","406.0","395.0","381.0","376.0","373.0","365.0","365.0","361.0","353.0","350.0","356.0","362.0","360.0","364.0","362.0","361.0","367.0","363.0","364.0","359.0","359.0","363.0","367.0","379.0","391.0","394.0","389.0","385.0","375.0","376.0","380.0","375.0","366.0","360.0","359.0","368.0","374.0","382.0","371.0","371.0","372.0","372.0","379.0","375.0","382.0","384.0","388.0","391.0","403.0","410.0","400.0","387.0","380.0","385.0","384.0","381.0","384.0","384.0","378.0","372.0","372.0","379.0","383.0","387.0","387.0","383.0","385.0","386.0","376.0","372.0","376.0","383.0","389.0","393.0","389.0","383.0","391.0","392.0","381.0","381.0","387.0","387.0","394.0","398.0","405.0","393.0","391.0","384.0","379.0","383.0","377.0","379.0","379.0","382.0","376.0","376.0","377.0","379.0","383.0","386.0","384.0","387.0","388.0","393.0","403.0","403.0","396.0","387.0","379.0","376.0","374.0","372.0","367.0","368.0","371.0","381.0","392.0","393.0","392.0","395.0","406.0","415.0","416.0","414.0","416.0","413.0","407.0","404.0","407.0","398.0","399.0","408.0","399.0","387.0","373.0","374.0","380.0","387.0","396.0","400.0","394.0","381.0","375.0","380.0","383.0","387.0","385.0","380.0","387.0","392.0","393.0","394.0","387.0","387.0","388.0","388.0","383.0","384.0","385.0","380.0","381.0","393.0","412.0","437.0","476.0","521.0","568.0","602.0","622.0","611.0","564.0","505.0","428.0","370.0","326.0","302.0","299.0","302.0","306.0","313.0","321.0","342.0","347.0","353.0","353.0","350.0","353.0","362.0","365.0","371.0","373.0","383.0","389.0","395.0","393.0","385.0","381.0","384.0","377.0","374.0","379.0","383.0","379.0","384.0","382.0","379.0","374.0","378.0","393.0","395.0","397.0","392.0","388.0","397.0","406.0","401.0","396.0","396.0","407.0","417.0","418.0","420.0","417.0","417.0","411.0","416.0","417.0","415.0","423.0","427.0","431.0","433.0","427.0","436.0","442.0","433.0","425.0","423.0","424.0","427.0","431.0","426.0","420.0","416.0","411.0","401.0","395.0","399.0","397.0","389.0","385.0","381.0","369.0","352.0","353.0","361.0","367.0","367.0","365.0","356.0","351.0","356.0","364.0","368.0","366.0","363.0","357.0","359.0","367.0","370.0","375.0","368.0","369.0","376.0","382.0","386.0","377.0","370.0","369.0","368.0","373.0","380.0","385.0","387.0","383.0","381.0","380.0","384.0","387.0","393.0","391.0","390.0","389.0","393.0","394.0","387.0","383.0","381.0","390.0","392.0","388.0","387.0","387.0","381.0","381.0","385.0","384.0","384.0","390.0","393.0","379.0","370.0","368.0","365.0","369.0","375.0","375.0","368.0","374.0","380.0","384.0","389.0","390.0","389.0","388.0","385.0","382.0","382.0","387.0","393.0","398.0","393.0","393.0","374.0","371.0","370.0","378.0","384.0","390.0","391.0","391.0","393.0","392.0","392.0","390.0","383.0","380.0","388.0","395.0","391.0","394.0","399.0","397.0","391.0","397.0","406.0","398.0","387.0","397.0","408.0","402.0","397.0","387.0","387.0","391.0","384.0","377.0","384.0","376.0","372.0","379.0","381.0","385.0","375.0","379.0","388.0","395.0","398.0","400.0","399.0","392.0","382.0","372.0","370.0","374.0","384.0","384.0","388.0","386.0","380.0","373.0","375.0","398.0","421.0","457.0","494.0","542.0","589.0","616.0","618.0","581.0","512.0","445.0","391.0","350.0","315.0","287.0","278.0","290.0","309.0","329.0","344.0","348.0","352.0","362.0","361.0","360.0","372.0","366.0","364.0","367.0","364.0","370.0","373.0","380.0","385.0","388.0","386.0","386.0","398.0","400.0","390.0","381.0","377.0","379.0","383.0","387.0","392.0","389.0","377.0","380.0","395.0","402.0","404.0","400.0","399.0","407.0","405.0","407.0","411.0","410.0","408.0","411.0","409.0","408.0","411.0","420.0","432.0","435.0","442.0","448.0","444.0","435.0","431.0","427.0","428.0","438.0","430.0","419.0","423.0","427.0","423.0","420.0","420.0","415.0","411.0","398.0","383.0","377.0","376.0","379.0","384.0","380.0","373.0","371.0","363.0","365.0","369.0","365.0","360.0","359.0","358.0","357.0","357.0","367.0","362.0","363.0","372.0","375.0","374.0","374.0","370.0","370.0","364.0","374.0","378.0","385.0","391.0","391.0","378.0","371.0","370.0","368.0","372.0","376.0","371.0","370.0","368.0","370.0","378.0","386.0","391.0","394.0","391.0","389.0","391.0","399.0","400.0","393.0","395.0","397.0","395.0","390.0","380.0","374.0","372.0","382.0","393.0","390.0","385.0","381.0","380.0","373.0","377.0","380.0","384.0","385.0","385.0","396.0","393.0","385.0","381.0","392.0","387.0","384.0","375.0","369.0","375.0","377.0","375.0","373.0","376.0","376.0","383.0","385.0","382.0","385.0","392.0","389.0","389.0","393.0","393.0","387.0","379.0","378.0","380.0","395.0","389.0","380.0","374.0","375.0","378.0","383.0","390.0","388.0","385.0","395.0","400.0","402.0","396.0","394.0","410.0","417.0","408.0","385.0","387.0","393.0","396.0","394.0","386.0","385.0","386.0","385.0","387.0","385.0","375.0","370.0","373.0","375.0","375.0","382.0","392.0","388.0","400.0","404.0","397.0","383.0","372.0","367.0","367.0","376.0","386.0","387.0","402.0","402.0","389.0","390.0","387.0","384.0","393.0","411.0","456.0","513.0","565.0","607.0","634.0","627.0","575.0","503.0","433.0","375.0","328.0","293.0","288.0","302.0","319.0","340.0","348.0","350.0","345.0","342.0","348.0","347.0","352.0","347.0","356.0","361.0","359.0","365.0","376.0","379.0","380.0","383.0","387.0","384.0","382.0","374.0","368.0","381.0","391.0","398.0","397.0","392.0","393.0","383.0","384.0","396.0","396.0","392.0","395.0","401.0","404.0","409.0","408.0","402.0","400.0","395.0","390.0","397.0","406.0","418.0","432.0","440.0","440.0","425.0","416.0","414.0","421.0","425.0","431.0","433.0","430.0","422.0","422.0","423.0","432.0","436.0","431.0","420.0","416.0","414.0","401.0","397.0","400.0","389.0","383.0","382.0","383.0","378.0","364.0","364.0","368.0","363.0","362.0","368.0","371.0","362.0","353.0","359.0","367.0","371.0","365.0","369.0","372.0","365.0","362.0","363.0","378.0","379.0","380.0","383.0","378.0","372.0","363.0","359.0","367.0","378.0","383.0","388.0","382.0","379.0","381.0","386.0","389.0","383.0","375.0","375.0","382.0","388.0","393.0","397.0","394.0","390.0","382.0","379.0","381.0","390.0","391.0","389.0","385.0","400.0","397.0","396.0","394.0","390.0","383.0","387.0","396.0","398.0","393.0","386.0","384.0","385.0","388.0","388.0","394.0","393.0","382.0","372.0","376.0","396.0","386.0","381.0","382.0","376.0","367.0","370.0","378.0","388.0","386.0","380.0","381.0","393.0","402.0","395.0","394.0","390.0","382.0","375.0","377.0","383.0","379.0","371.0","373.0","381.0","390.0","395.0","394.0","383.0","382.0","383.0","375.0","379.0","388.0","394.0","406.0","404.0","393.0","390.0","393.0","387.0","376.0","369.0","369.0","389.0","400.0","403.0","402.0","402.0","401.0","407.0","403.0","401.0","396.0","388.0","385.0","381.0","390.0","403.0","397.0","382.0","385.0","380.0","377.0","379.0","390.0","392.0","399.0","394.0","392.0","390.0","380.0","389.0","383.0","386.0","393.0","396.0","391.0","390.0","385.0","384.0","390.0","390.0","389.0","391.0","391.0","387.0","389.0","399.0","428.0","480.0","532.0","579.0","618.0","642.0","627.0","575.0","499.0","430.0","375.0","335.0","304.0","294.0","293.0","303.0","320.0","340.0","356.0","351.0","354.0","349.0","347.0","347.0","346.0","350.0","356.0","357.0","358.0","365.0","372.0","373.0","379.0","388.0","391.0","385.0","377.0","381.0","388.0","398.0","403.0","390.0","382.0","378.0","373.0","378.0","380.0","387.0","394.0","394.0","394.0","394.0","398.0","400.0","400.0","405.0","402.0"
