253.33469418981113,212.7924298305992,550.8638493262395,1403.6408672641567,2514.0207418570994,3330.4349556268025,3387.6680851836018,2685.6336279403517,1678.283986879447,848.805346500017,312.78321679989523,-132.08971870877883,-618.3009866847651,-982.3318276184084,-969.2920096440868,-587.5886622346841,-156.71878821483574,13.04440215030969,-78.6411603126362,-183.53582042235905,-123.58269834663504,23.306204134576358,66.01023948618078,-34.94529817483466,-110.36644605877031,9.405432620835965,283.42674604869416,499.9029886805687,512.7999846484885,391.2567874850479,314.4634651420864,355.5362757961392,420.71140202975823,401.94682446511194,331.12288713243294,332.2235007100524,435.7342734955475,501.4227196513681,363.85472598298924,39.341437177837406,-249.01142868359508,-271.12489512264716,-13.292165319110168,302.47666598479407,427.93494302828174,327.63383136874023,210.25011979957287,304.9249136467064,596.0559611990207,805.4617036813627,676.5250824881059,272.0606628633639,-62.39159047009221,-63.75289311510394,157.82927238444714,251.86709218047045,45.55462353054304,-240.65803976466964,-238.04526645706065,149.57838689644802,633.9871407189777,852.0459523082014,729.4721740403896,504.77467015860907,430.875869577563,514.238313040947,561.4800573372398,439.46609843745165,239.11527842836574,169.58771229303912,316.1114402149863,538.482537120096,624.4949396532472,523.1488427903242,388.31466897157605,382.74659465961025,480.33348208995903,511.0826902718501,392.94207395381557,252.78417559377323,270.68079428883846,434.7448075358478,521.5370759844413,347.4657190779489,-0.20128294739794916,-232.13005906644315,-159.28761542721267,104.9385255429347,264.13327659668624,150.1598075434849,-103.94067793734199,-209.2856981618776,-31.82684840576959,259.0567598672859,369.803130922547,210.46463350426635,14.79002393893477,97.06025245863361,487.75589024058297,854.2095918461507,825.6123116568366,390.47454197444756,-70.02727242521777,-162.56117542990717,129.24634178864815,458.18147908770294,492.9264488063712,239.94098027318068,-17.846839011896762,-51.80943196005257,95.12852000017236,213.59722244888582,189.69123084890794,114.38324400086445,142.16730384897815,290.78507611657585,418.83219390541103,396.8065050586359,265.5415102420507,195.5313942094189,289.047247656823,449.3143239886544,474.5407183069596,284.79309921674417,29.65349707638099,-55.89839221075729,101.1899650806911,335.4428618384538,423.3129896417087,314.36575000808523,155.0018157606018,99.24782846900682,148.63310711342706,202.88999259549058,223.73224003502142,279.55226463726615,415.7471443954497,540.3106083545523,501.46187510588794,280.9774439085168,62.057298546944324,65.4318941939112,318.58146865600173,609.4722030718893,683.340541976776,486.2080765610744,210.25284384620474,96.38848631155322,194.184824365266,324.79609755290653,286.0541698237388,80.7519004774204,-85.31020804623402,-39.69630773452017,154.51236413592673,273.88318646826366,208.2805020725635,104.5688485474454,191.02893002119433,478.8834501724725,706.4015829533159,618.0705998656387,267.12600637439317,-17.376600538827848,23.157940435739285,304.2657128931826,504.6898613877283,424.16727581996093,186.59571505626445,72.4684292693113,189.84825767981908,361.58301583965607,341.6180839092765,98.83637639361042,-150.07111665923662,-176.31699670049184,33.30370156255057,295.3164752992081,440.5571365240519,467.6381060422302,491.7674899123241,583.938274293335,692.0519569858601,712.4774331499503,613.0264999373426,474.20840699892125,412.8646114402859,463.33852227194285,529.452511699563,467.2356008667421,239.47376182263054,-13.88969202981189,-96.19259341832921,30.771913642349137,180.4363322897281,137.57484459374177,-82.54758556564397,-227.07882336398612,-89.47498948302304,238.67890794368495,454.91388115074744,376.59368218521627,126.09125555511936,-33.865534449700306,4.462607554781993,117.97964678244205,147.8949083280528,91.34227361275384,58.591740262527615,83.20448156610429,49.54251468454772,-161.50238163227343,-485.5657862567238,-677.9647629818936,-518.455398597871,-0.6247720424626575,688.3482419236434,1352.976471088144,1919.7450899313772,2379.950733583971,2650.432295470824,2555.8684511359415,1981.4061622754639,1032.5156221329742,22.122750922996698,-715.6424559958074,-1026.0368618340715,-996.6320824718761,-851.2842621318664,-761.142593925559,-717.9693959798427,-583.7915487131055,-283.12088493232426,63.71808899188861,242.66785819262995,193.84147275393894,102.33483243883795,185.7939246864332,420.043343973711,558.6269529629889,443.815430391452,216.87660475445446,146.39440541510226,287.6912281195498,415.56962348328244,322.3334454090597,97.3999613606327,25.673727658206815,228.69566147687144,497.8322648830708,529.977423829475,285.9982509574652,48.65623801555599,109.77826147088898,436.3929065512771,684.4052180616355,550.4387214597463,96.15089792814086,-291.07652706292095,-265.5100786369395,149.44834037889385,599.1943585860608,751.5738925478148,595.1289950697363,383.8526238517933,320.9075463180518,350.888637868981,283.33561819612356,73.46963966168903,-93.40106720569521,-19.909690576071043,249.87183432860473,456.19055294423237,409.4570010576426,203.80574744710327,106.53815909949795,248.44427016163291,471.8004129903264,514.1196587525775,322.49105847172325,137.9957396507168,238.861505957475,615.7409900068772,947.1535008604922,925.3895487598395,586.8151143392109,275.24145019625286,269.80401538908365,495.0891074130688,640.0128363075137,531.4594558946301,312.20105242951604,226.8709086882198,307.50220672126613,356.65272951459355,228.28114570666838,29.022375649940745,-16.118412295212213,147.51979142809017,324.93729924061444,290.52565241686824,40.81372171962114,-196.25609607940262,-186.1825727615839,90.54637856567848,421.67936178595414,551.3862876243311,402.5239421711532,136.07786408021911,-10.468491183105861,48.04758447830492,184.71354718889623,230.07089753825136,165.31437298667237,107.82565007340068,127.59677745653943,152.14937307222814,86.62670068324539,-26.983294814513908,-41.53494207278599,108.0829234931196,309.2722140756165,390.35418769747895,304.14927268564156,166.67750910824134,131.14057464201045,247.07823642294127,430.1852301555875,544.2597567869069,518.2815560945319,407.6576430001531,339.6670637071828,377.3905519382662,442.2912779021779,404.0273114965533,251.2562653422202,127.3408278996365,160.3811623412232,289.44214877013053,322.77298600196747,178.46420337680712,9.530250520001296,39.4735598407571,290.30426001293847,528.9839635736303,509.70204152405,246.02968257533533,7.905266752542904,40.59898099974377,306.4900039295587,527.7322207601025,484.1845570301603,241.7679023721299,60.221866280861065,89.80981111188379,212.5160947895268,214.88679937761418,77.08573710832974,12.998629091508732,200.938859679643,536.214628530153,719.8253969713559,585.4675904637464,276.64212015546747,74.90073356573208,97.92592199772373,214.9512565223231,241.17310324024314,152.95495296342813,83.04223304603235,137.93783884486595,269.7049682735429,340.8625072475758,291.8559837638945,215.28047807120578,250.60915323362659,410.55698784963494,535.6450716662354,452.03504377906035,183.28884809286242,-25.867124074280895,59.31238169461228,399.6429828360192,682.8110897590991,620.5964721901036,239.97852539369381,-145.22285159168572,-248.71818546333935,-68.73085736114197,170.68016244343133,286.1945543806968,294.0852678932521,317.10026540572375,401.60270888597717,476.9417975229459,478.5949198965462,455.4657692399156,521.2895334029839,708.4436795374359,896.0761123954398,902.8449839708502,661.7915544375383,304.597037198323,58.41712532097434,38.689017054882875,140.30080735332402,150.4192499311323,-21.27048986111687,-239.90004447476605,-291.00844266369717,-121.15727024331349,93.65055429558176,132.54356895895052,-32.020546023055765,-202.331900657963,-168.56071202108808,56.08406472996843,231.80044914755197,139.50978181760684,-172.5004333656098,-417.2359289774421,-362.42359948551234,-65.65263972103563,233.94281588023492,447.84612656078326,768.4623498887294,1391.537023172144,2155.267723486294,2583.8900935202328,2349.756958916557,1624.469444080456,889.8004095179338,428.3219176823185,97.5796370079187,-370.63146050805506,-945.5640211628072,-1274.4466906779994,-1081.3908865848784,-509.8191424077527,-11.621572958740417,92.87224277591868,-93.50298723279853,-201.45435976939015,-14.033159331820343,309.5513188378692,438.0862422634984,258.30104385332396,4.2862199508569985,-15.778840319647014,231.6071044554873,488.5046627296588,521.8105841542804,379.76907440026116,294.4137717350935,381.6898396311441,516.7146181590645,511.89695357465854,351.7067488081696,201.85666530467822,208.16730768953215,335.83847229899584,419.34950869411546,345.3030564836183,168.05160788763712,52.243566574833146,109.98530470115001,288.63681892787866,413.95976169341554,353.9870706432771,152.34631504721898,-4.957441651486841,31.394604731933256,226.75205877023564,405.5380824089128,442.6428296359535,390.18632152382673,392.0739890907104,486.29333899814276,539.3068852585724,408.17224847287133,141.6312838087456,-39.72677594108245,13.610395210274008,200.54661043385377,286.3176950460381,188.57289561523228,80.40538206177189,172.84760983408367,442.5603531714595,647.7909583315076,615.7813622028939,443.60832441887237,368.9861318319689,483.6617985993555,643.3678285918191,662.5128381854767,533.6066815719903,413.65487440488675,424.6664386715403,518.5997478462584,545.3398549442552,424.7306976746866,236.40111881745145,145.3447289977745,234.43763629442415,397.9082137080038,415.4450295711485,171.65113884152296,-188.57624211467822,-366.2762982152554,-208.08068763796885,121.76421925661391,313.32960542310093,245.27397827168932,91.18050084390124,80.10154393394794,218.2003453981626,309.91120763522065,224.13025535340358,56.64401642570247,6.504216547426827,148.61141322486966,369.6853302669794,495.6919995848641,439.6652181108951,249.68884814293773,68.60082396678801,41.49262770080818,197.69359623975726,397.4883204154962,446.7505145589585,308.2487889487014,162.51996499970198,201.8899882360041,387.80077224883814,491.9528665623897,388.3663819134128,215.1023930032548,183.86228164841125,295.67944481169974,355.7607275860298,263.56320142251974,162.2898267431012,226.22681010079083,383.1474884134975,379.823920950548,129.66661315248533,-125.38804665485718,-82.53171423605123,246.00747948779826,524.9804425850905,475.6195494249221,188.18010884737419,8.864185211843171,153.39225219205966,489.6488015013278,699.9586062914088,610.5717927694947,339.9485723429817,148.79046007009526,173.91759309932542,309.9625266437807,339.7718174631126,175.4488790801862,-37.37249078458095,-70.93338868674451,128.45821224808734,366.5848566944317,412.36626464544,262.3710270462709,142.51799149612057,234.0687703136188,452.1927921233948,550.4248881202863,423.7539608857704,235.62944095362516,213.87329730885943,370.31756504282265,487.530411220619,383.8080855587179,132.50157991816494,-25.382216236450066,32.901823519143676,167.62093067186638,145.59192910447004,-72.01771271208541,-259.5882764851716,-165.56172186354812,205.52063939595726,588.4901845416158,735.0792998284522,655.2677298223587,557.4668605153128,583.7372368291203,663.198630100168,634.941216623867,459.7181783263853,263.0686137350278,188.56154987732043,256.4823623291069,370.6847015207095,422.9091178501935,371.3265328510842,250.14915971537997,136.8094701794847,96.04407792830514,123.28422733509994,147.50100103014773,120.61922809096433,98.52696172549797,183.56003489630527,364.4935623329272,465.8857314417604,323.6358280821505,3.424039843835865,-227.75779926586975,-183.91067383091047,33.347846468214534,164.0614217593672,96.41307985109249,-35.631194558505115,-73.71379069808071,-63.354340344493394,-170.56653708046224,-390.573965299873,-444.73884548485034,-37.77438568698578,804.4874740167597,1705.7839469097746,2254.324611119778,2323.831143821938,2088.726468723106,1768.99408166051,1402.0579274988268,868.9620113346008,119.47952374493077,-662.8880286596154,-1155.1315380543856,-1178.9724176178588,-884.0131584962195,-611.5930977491362,-556.9870972976885,-591.9021623828661,-450.54391407753724,-66.5065021543262,334.5543247597562,491.2369640468932,398.77972361777944,292.4556152219612,360.25544095978523,539.1441489270638,623.6006532256363,531.3947165331999,400.8286872132198,412.7973905556446,556.9250078611859,621.8357771148101,432.6853268619829,73.17331821676562,-170.9168655418953,-107.37418950770258,151.71277303849365,316.64971863850394,251.3794778323931,118.21229281411514,155.28573727034075,360.88712788047593,488.22874769319003,366.6942693897242,141.09578457412255,113.95121023569031,378.39881690721234,695.0691070097122,758.898475118458,526.6943031498472,228.8534448327568,89.94391227614439,106.93665911038643,115.39619092179701,20.34926278374406,-85.50885821499962,-27.019379741224153,256.25051745599865,620.857163995886,820.068835276722,708.1861143693616,371.80783757268637,61.78458612504957,-26.47009015460491,82.52995751802787,206.62027313764798,230.14151339521518,233.25505438506528,367.83830016839994,626.5166556527212,800.6313357127284,708.0186195477849,430.3603339384557,257.04240592689433,370.3370142463947,631.270191692051,729.9501393576098,539.659441863876,263.9042286801718,200.2575316849461,393.36188550870696,578.7006317555677,478.3209586044883,108.80677860918028,-235.29947861079148,-283.79045661173643,-43.637752395117104,239.323106389938,328.5607909621668,192.7042783975141,-10.380071992398765,-104.39154596602675,-48.41226799736172,54.71414288664205,88.31340599157016,55.28391779877572,68.04753225968378,196.49645450477706,353.9332959033754,382.2193171632787,253.99650763023934,132.33692276727032,182.8636481846246,359.8164967377583,450.4238277328836,340.4816730116582,165.25149627408567,143.73672943409693,302.1095238741478,438.74217273363286,374.7557836995907,174.35883851648114,66.48533204258885,173.78264983200413,377.037123417665,460.61704258321237,352.08101541190325,183.59841390089142,128.4055328322555,214.3139561428031,317.6742684763371,324.4187446986832,263.33323970582614,260.748891449275,374.55218380970547,505.18862507835524,496.906814441679,324.40750506630565,150.2614353823754,167.4002071070976,379.6807856470235,563.8217109011206,483.1153996512524,149.0423201228339,-156.39991296468312,-154.65378092955027,132.52641267600387,397.7008483789502,383.0654705977424,168.36575673540932,69.9784919721156,256.8367456010578,540.5118460159523,602.177128882646,386.9284877344273,180.60338197133345,267.31613401477347,578.766205204626,754.8831684956708,540.3348493970475,58.17648559623836,-327.3887429942725,-372.0648467498975,-141.1535959847269,122.00749910674742,247.72622631932506,245.08905069256437,211.2894903168432,199.93572905428852,193.5904143338799,174.37049417964266,181.96782890836644,281.56810108467334,475.7300228103846,664.4264433937774,715.0144199901049,586.5382381675907,381.2587975883477,258.98056226817033,292.8584773045027,412.19983253969764,486.52821950416364,455.957124293995,373.31829199483826,328.38517787217825,346.0624569862677,362.9263361804742,298.9018686510565,150.8484939510737,15.05484336153362,6.527104075982418,144.81748873209634,329.33459067681787,446.79073489631924,491.78563156724425,539.1885245250195,588.9921948537243,505.1476102189261,184.0090980320084,-235.0910646703177,-431.7959140847138,-241.16100210500232,123.25667244692322,267.718499444221,37.69294424895246,-333.6431967639813,-514.3582929920973,-433.25754728659655,-285.2759827292851,-224.73380404169566,-157.05209301650237,132.12963587418852,703.5041657828388,1375.8800358540727,1889.9130400617496,2112.1123571993885,2080.0026081244514,1894.4647072262944,1599.780104804063,1163.2164000611428,558.9471423316098,-130.75248941557876,-709.1719285492323,-990.5522719549357,-955.8545121731667,-776.1224548101573,-656.5787819813406,-646.9455890108917,-613.3755451214137,-402.8782510979864,-26.897763749706648,331.26664559025977,496.178546294021,477.55062363380887,447.5909148613277,530.5197918764887,639.5879462282329,573.4493636778452,288.816305800583,17.54545463037397,36.390086999112796,326.3169388560973,550.8652868361876,430.0462597887681,78.00365618768356,-123.73700555459295,21.752547434438476,309.34188809958755,416.10343487541695,310.77666316492537,259.4345927620589,437.4119346576968,672.2628479638944,658.9240052551232,363.75307691889094,91.296446809767,124.36682013655721,384.2406762727067,523.2102298093022,332.00170691034464,-17.365045841044854,-161.80592775754684,55.48006859930905,416.03325157128614,553.725032808652,329.73697115547793,-29.08365812201524,-160.62494001719637,69.20005743011757,435.19152631407513,588.711803602809,423.28999818686856,185.30136630637423,197.50039266814522,484.51224748461925,725.2073849435196,612.8454752379615,227.42662819018815,-24.29313354718947,140.86240401050665,558.3495962791924,806.5473313723761,688.7901440227998,428.2573604585561,353.15950294668403,481.9551367618457,529.8175792404871,310.3609961152051,6.093256217106985,-38.21071608573533,265.5217510592981,635.6741148872478,734.0911445601602,514.1566994711295,216.91824385551925,78.49267537447123,113.40298048938647,173.81911625300748,144.53238244444486,40.664587541520035,-47.007387320331155,-52.199414940217665,17.591875147019817,98.14919838521449,129.59577705953473,119.44567315542791,140.6442876605667,239.60622830258993,349.0223000166811,339.03370123585876,183.93411964398368,39.18233875314153,91.34891885199032,329.7539574844606,526.1147758467425,478.26720241283505,241.83660128457592,69.66056455342228,124.81766648206965,302.74501254431914,364.16629175637945,217.71888945173714,30.32662757104684,47.43527097028011,321.5635783408962,637.2949223395573,713.1765670523894,478.67611613342103,144.67934877367392,-9.112220315231596,88.81933940353765,256.291902737089,289.9647445355677,203.4014506017556,185.72137048373474,332.5869000119406,492.02750187679277,438.08868104469985,172.0419264791868,-32.13213897931492,75.97390259320747,424.2125616008552,678.2837248927168,603.2541113971776,311.10855282718705,115.8493250583691,177.20594185930662,346.32699273465977,371.44835650334267,200.6448309714862,27.32099446263496,45.15952834508017,216.7235105445143,325.7784131909196,239.3844494459941,63.99058351738517,14.50428507854721,157.70606372729347,337.2897953099976,367.7298307105119,259.8676430168125,201.61498021194092,315.7067705284154,494.0584668161666,520.0581178651342,335.8274498368533,127.03729622230799,115.68951690936116,304.0951038258224,469.2699952366837,409.19672334753915,160.08269449372068,-44.045675401831346,-8.765076743339321,234.82634017577354,464.6381104872616,473.84249127589453,256.6544488873948,8.92248069527423,-57.591517669433436,87.50686651817036,284.1499790777197,373.3030456774053,374.75468244159794,441.9686375025386,647.0259006647102,859.6743417824155,873.6088956807887,633.6815666719662,302.8271756031183,103.7093453781095,117.42142736089997,238.9178774249066,304.9853877533415,252.70245857530008,163.20230253644272,157.40432794717105,245.64919986241867,295.7483579550037,184.43506160183978,-19.885720055882256,-85.90803462339463,116.32255722135477,413.82198580246535,480.979319011856,216.8346408891084,-102.5056794486963,-121.96286025213041,171.47513958610642,416.4042444094483,291.38236659419243,-112.19571698819173,-403.0514081482996,-347.92351591418645,-124.13077150507057,-71.65074192467632,-246.9479644987232,-308.82612612205463,122.74383933663158,1030.9930155819718,1964.2882514474802,2429.0868521079183,2296.6515419970465,1826.827005316515,1342.3313516562864,935.0143461919896,493.23546911226373,-46.276179172082436,-550.6217172902891,-816.8031740111638,-804.8586998341534,-689.3309739116796,-660.4430291077059,-704.7017266731619,-625.4903006204863,-289.319605971019,184.10100711027346,516.3700886765548,553.066599544174,414.63961006627113,343.1539451898333,427.0282172661454,526.37286663256,475.78719984813114,306.6464818316532,214.86343674147008,317.1336434489562,495.4778285952934,518.5274611340229,297.2187444880549,-16.768051319458774,-189.42325561543004,-131.31665930358477,50.241278135551745,203.04648450650967,292.8807554476757,395.5037667485797,548.458167672482,659.1671167204248,596.3910710317401,365.4714198409007,148.7980389048353,135.4528331505839,315.93690245237786,479.4296432785659,432.1346413248736,201.58197041570546,1.0468678521737902,-5.757513810501159,121.34474099212174,178.26298625299765,61.625004421375834,-95.32403952216423,-62.0754060642016,212.24774995776676,502.3532052230539,537.8249689360216,327.9234762606419,186.73716398404565,378.6678578345407,778.3672192419325,978.5087958475208,758.0970706571209,354.5178598008538,190.8263553582966,380.22160305150373,613.6802768972458,556.0228317221357,246.63168120938477,25.60673374802417,116.60491143844709,389.51103112743675,547.3844128035345,462.2785957212421,272.43929204822365,189.64754545669228,271.846415770381,385.6286765915027,358.38496156202257,162.10514210016393,-38.23763397200936,-31.32296478102617,215.96654867406247,487.7656075558869,515.8917723783118,262.06775346224896,-32.21321036462018,-104.40778836525564,50.16211176027382,199.4086966018743,158.6463223862333,-4.916332501520632,-74.26028064521603,53.964033682703196,258.36890233881525,342.1870713955932,251.2433277114665,117.7027428210709,101.64492189324807,218.57355706983452,336.8536290107454,335.70608260581616,244.33410666922052,208.5367032851004,321.94005463877215,511.13226511311194,608.0801634167583,533.3110136906794,382.64391992462794,313.8389991056445,358.5988846724567,379.7379035759783,235.5971105513094,-28.67911365203128,-193.96823979054375,-96.53461625918357,172.38950182520534,339.0099635874288,237.72574605632204,-0.5814437916241383,-92.04076109702501,75.29039313298492,313.58292769749363,362.68978908366626,204.8854576850162,87.34900822587687,225.73421275557416,547.6096708826956,775.8065634221222,733.9738379771153,507.85648611664294,303.25368152738776,210.03061279012178,153.378553297085,48.84427052164282,-58.76463720979896,-36.40816537572984,178.1662633924923,479.87662775376646,663.4239615844165,597.1781066250865,349.5680954583819,140.74184532534207,139.5497107949211,293.50683198069106,385.1963408831399,282.3479568194043,106.7215269214925,103.42832426821141,338.9172250428647,587.977045393694,569.1852156474947,267.74962916473555,-37.31379480651542,-81.14380193463953,101.50137937257003,240.7902763629362,159.55547376699147,-22.961006577897518,-41.81441566402638,192.31593095334705,476.43035146846955,539.1656492282785,350.04407603642403,156.6351139587859,198.3519005234851,421.354213361812,532.54728761332,345.8963767515461,21.91499241503755,-95.07748153380948,128.46480954244882,447.6874173646105,508.83302979456215,252.81274610542923,-19.754835633612153,-2.8726044199283955,258.1353403665236,430.6596901474934,300.5068315952178,30.184200047513976,-38.66725294888757,207.20436735472228,530.7541447887043,642.9054729698006,536.8737008213047,447.3246744207018,512.0325109110505,587.687531945232,456.7529526257331,148.90057083247942,-46.343076531252635,95.82124535850433,464.87111734263704,716.5399585842772,623.2272602534929,288.01082015305116,21.337529135485486,38.91497690359122,279.1162904514625,482.5093406014792,435.6089430941583,159.64948191395135,-116.9316669981698,-175.81179005785478,-9.485671178891431,195.53769631966335,269.30733507885344,222.53197085690545,182.4058670823857,200.08091791643332,184.4501759214187,42.86764776179768,-165.50285492438147,-273.603777568381,-200.50045412783896,-56.309211187874936,-26.01050254430601,-157.0801700304247,-278.19278532743687,-134.86558820180056,383.38466233935003,1129.0830289291869,1796.7217231174661,2146.3737345883187,2146.392607458987,1911.3380971835793,1529.1050060526115,992.4361101336881,312.09812653415963,-357.3319019188201,-781.6564931554321,-856.8183606580478,-708.6958882065769,-547.0485896785074,-446.3787892606222,-318.1341768394629,-90.52962301484818,148.9170660547648,233.20292652998793,115.53965513678345,-57.202029315317915,-83.02404062773343,102.73094714667124,380.2820047468685,569.0418795678053,579.1685111110369,453.6753028262798,297.17537193222455,188.417812624081,153.8233571945678,191.47515952690793,289.22440991476765,415.11881480200117,510.2584916860404,512.7761383827994,399.4007502098987,210.29015426014706,39.2545864353027,-11.097167509344429,100.7891087302251,302.109270358633,437.49175134560284,398.21283917378383,236.95899798931643,125.45027755023375,172.5658403978168,305.42514289795184,364.8793993819395,303.2450350086765,231.16257574779598,251.17424885073723,303.0111325965801,240.0695958501766,48.46196894710312,-85.47710529027174,27.078227522633433,343.4254911777708,610.4415175003456,628.6265677493315,454.7794452217623,315.9753064076854,350.03335239743075,476.65793457645293,526.4224798586336,447.87396034910654,347.0681190696986,339.91003210703155,415.26006574687756,462.6659708719329,406.6193896207676,285.3031548163225,207.50785565193968,254.4933162446888,414.1720317731108,582.5734870435938,634.6154467226991,534.8488614983665,394.0840304926733,374.33702127175377,497.0000430895772,574.7402415136556,400.47488816877785,10.728090904790827,-308.6213128591146,-326.08812316328425,-126.71064814157073,2.840258972545569,-64.75450353662697,-147.70683424130542,-11.126341625266662,304.32969716194134,511.7794283869981,428.966390476442,198.6478084135106,104.51980449162427,230.0179068488591,386.20769050955715,368.50418855361914,199.00273003998302,74.30402531030984,125.67071332458222,291.00439097604027,410.3432118113017,395.0256796689416,293.17427270730695,224.53187702768878,265.72614690961956,374.68053366409794,417.55901616074044,300.0739332170164,89.190240784443,-30.555898840435134,43.10972223572334,203.0665446666456,259.81822783758815,182.72011926793445,138.34765816199393,260.6340604694956,456.71193934241313,519.1341341587574,400.1610001062798,277.14427847233793,320.3762259499962,475.13727820988885,539.345362667205,418.57642942681326,226.54952337529926,130.07306589860028,160.6241946480966,212.39727158245768,187.13735440330998,97.43142911928385,37.166534464272125,79.5004803193344,201.05691740914656,291.532445850529,255.89693542700365,135.39739053784314,105.49112883141287,293.90190791507393,589.7544768553961,702.6073708563653,473.1223682416225,91.75796948800335,-75.60562652488241,105.76146756479075,383.1330469674948,419.4121540828791,197.59827097803162,29.796725056300303,162.97816571782639,476.3349687127867,640.220738810515,521.5189345415863,325.3420186508847,315.16402537384346,479.99567670391747,557.5995007769445,364.7593180286692,24.330288730424883,-167.6422446804208,-59.99149425978072,209.87535954659293,377.3833833075139,317.00456014666923,138.00711041722087,41.562822749690284,110.02583771309952,243.159069062988,290.6741155653841,226.80423512514162,171.3947759743713,233.15454036868954,359.9632761516456,385.37234836735104,231.66490705710882,29.169193150127846,-5.650286257393252,192.6223078021287,454.5679274413611,541.2576716057339,377.13957577816524,110.87147973186121,-34.74282508435162,44.59457293550422,272.9478585480179,487.0505576029992,577.7488617685207,557.800112836584,511.0424715579686,485.24005718640854,446.71684984846576,349.5469970628989,229.41559784095307,183.88573192139933,242.393706990434,298.5473671807559,224.86382385783492,44.91502952065366,-71.9830857585869,-15.206440279365925,119.11188351678142,144.41583541008987,31.461389202254882,-33.46468137671035,129.50412296648597,459.5627660059205,698.6866159481606,664.6376158583479,438.6865142126528,270.19395177518857,323.0801061731041,531.8772520162103,685.2714473695328,630.4447974814003,411.2739420772427,230.2490188648162,262.7125547991674,476.17268609200227,635.3423932219802,527.1435005632721,198.4196361086661,-68.87877331970581,-57.591041190057055,139.4929642180274,239.22643518685967,131.32969036610456,31.882215981097797,204.61965703953427,582.982849396705,792.2184146263862,583.8176372381638,150.13266139652856,-92.03560540715209,6.26118422366854,172.01092611391286,81.81681725167667,-221.5453270425508,-394.79901657763503,-244.4166983347095,16.547630148615614,19.7997664754601,-317.38584062111073,-680.1490433889719,-666.3125062527636,-145.76357494121154,679.9900267974874,1490.8713381398866,2071.1083603859884,2370.0770769709343,2425.4741200098465,2257.5230828552244,1827.2657206572135,1103.7238096106512,191.74675328514704,-627.6238326882421,-1052.009533779449,-1002.4111903659767,-700.6568914775035,-465.86851615899565,-428.2493556357575,-460.43670695733607,-378.0294889930004,-160.15503492839687,53.29775492360166,148.72697900530488,166.4748411783087,225.47774586767997,356.88765731693,460.3161216824254,438.20547395771234,340.49818406630186,327.45072776638256,472.88632368302996,641.2273090593413,612.9723350524318,340.50579817429326,31.94334096417006,-60.62804213891531,84.42572347810979,247.99340419475342,240.2617345748324,124.15830330885674,121.78888621437005,324.137912111024,562.3980201365869,595.8652773734651,388.73983282292465,150.98353095784856,102.97271590606492,237.9208642062491,345.7774692910822,262.8565623611167,65.15345192211257,-10.046086319564719,169.16562180677326,467.71359791725666,612.1729021288675,476.2656310643381,209.61032926580066,67.33081314128928,136.36800847369955,267.49466040019263,274.61377918122554,152.17815225753196,58.7051107521493,108.03126569039291,232.72656937619695,278.01447768565924,201.76302301405573,139.15242648088685,255.7087835972052,551.3225072667442,830.7580874806739,883.0147833179269,695.0088901409518,477.0464031729473,455.36264485247113,632.5035582985134,775.2377861362764,664.2590494635875,344.5164618352648,89.94496848891573,106.91180623849152,306.0861441599456,403.9573836999938,238.58586927674156,-58.07202808425872,-214.89831678465515,-114.65502279236536,99.63291342682362,200.57366558710424,122.82886997576335,15.374323777753379,59.12240932646218,256.30286963528124,422.3758450432363,394.74573779923696,228.8066631043992,144.11841318995943,258.54774050504614,422.2305605381457,384.0630368758269,121.99134715709671,-79.82748178514721,47.045463273332786,399.58337785310135,575.6971461034063,334.7690499075739,-94.95939654713867,-250.8325203703982,47.412242819345835,501.344524062226,674.9450456738672,460.13440038554336,141.92975733695752,37.1694971500325,157.14861280029962,259.76820973990465,176.53048490120028,9.82630913481655,-9.602854229892587,189.49361314969207,429.43869136711805,490.1186615075466,365.0154435798704,266.0409529764275,368.51617727309747,592.3020685884144,679.1293120095407,485.4515883435367,158.51095890040884,-6.912058295769485,123.947792041629,385.66258033676183,484.0711755228522,296.66972025236157,-2.867709074037799,-117.46568527164558,74.43985793156827,391.58646295704375,531.1080198553003,381.81906552574,135.66978209909163,64.05990287973127,206.91811234369305,342.84441694245993,280.2603910554055,106.56429645559793,76.0291449233476,278.8988379382123,518.7640586047505,550.6982359164404,364.49823808281593,160.70694169057782,88.95983258706033,108.37312724879911,117.39114777765906,124.7605078931501,217.4745866248816,398.3745382584471,539.9261821675094,517.7202887959377,347.52222906502953,172.19713280126243,137.4476362874303,280.827757013964,497.3589910292843,594.1844716066289,433.7542357127342,85.95966407865612,-181.1739637425567,-137.83921569199103,156.96129853393978,396.68123769588146,359.3589464735278,154.3974414576675,75.77393500553188,233.65171140970978,423.01965610603116,390.98160390274495,157.66664233357227,-12.648915872170718,62.68890065434716,282.18650508191985,417.17291528851734,399.7427591743119,373.6689785217842,470.3060270348111,616.1048856433903,613.4939738428317,385.0715701302835,82.11850448890499,-66.51734246817477,10.501934646177187,165.18909933085874,199.19845925349733,74.45526107826464,-60.43446252878856,-50.59088524951696,84.6549508840425,183.46201951468078,155.7281747234638,121.96338770814737,284.85321744501897,657.661300002061,974.4402526474328,926.2188774130276,489.32601957985815,-17.765476348643922,-225.62827342297234,-50.904161216251396,262.3859263594786,411.18432359499633,313.8483200300605,135.43360152910964,81.63263102465555,200.2978281045132,373.45355418561246,467.0669349877313,465.6683569648109,463.3178610712465,536.096472328426,635.8383545219049,623.897461274396,423.8692464582022,136.6551608108491,-25.70334778047072,50.58974374176961,244.51014473820675,309.5576810753193,138.996592213753,-105.53466101176433,-170.2884372062936,-7.8268383921641185,154.65511224604305,80.30796790510372,-177.27502576386925,-303.52510266359036,-71.53217679794919,381.1747990885748,666.2768333530573,526.0573223916434,71.11618422636153,-352.9763588428056,-486.0869877527892,-316.12866043006386,31.11679015527165,479.39901861878235,1030.7498665311743,1631.7550539443714,2082.21816586453,2140.852376314743,1742.4964814856053,1089.4320227382907,496.19467164659824,133.51797325994434,-67.05140621343142,-263.16147983770196,-493.58460724230815,-648.1820561222487,-625.5508523970053,-468.7104214218382,-318.06830314830336,-254.7692845142615,-228.08320304569074,-141.30860481718986,16.572852430371412,145.18051879995704,142.03881077973168,36.71903718029421,5.25971666560681,216.84771649171998,633.6431574564248,980.5414962907466,975.486889514692,622.2515628702591,235.7729586954737,126.74333813207157,279.3374335033248,402.49894672677647,300.3432743222825,106.7454474241735,92.15361551166451,294.76225565566887,454.5197416714162,337.64659357296944,38.61958200481021,-119.52988967062669,41.85114218252715,362.7996701103772,537.7512999742455,440.87570490113023,216.81351707681716,85.9758787211381,125.02381540158868,245.4036314501566,329.10631108088745,336.0921107455129,293.6010614543188,234.06764061047807,172.49777526598373,124.77636090192954,112.56421031015303,139.77217159419288,180.83685579764065,207.43723342510847,223.81025131155698,266.22268842153835,366.8706361365888,520.3463661776458,677.4397405901984,762.8250809305373,712.8149500377623,529.8137252160121,314.2725310278382,212.54945109907038,289.21403089104183,446.5191101892654,507.29968242546835,401.59628930629543,248.1629414888444,217.7121393460813,326.2972499249357,410.70216298968654,327.5286722825945,138.79876533803184,52.00294078594105,176.76830164855835,384.9619983895691,442.6323585970669,266.54351688327966,17.874983525075628,-68.38085914945471,68.97957263949348,255.8995779535279,268.8392529211295,71.755749554023,-142.7491862830505,-152.51906063281518,63.06561369935439,308.39332100566196,391.1950198081895,329.25346793487296,303.72589032066577,415.16049690259695,544.8760849434308,503.7888916696127,287.17422439743814,103.647305975945,124.41352042212753,265.1356698874383,286.5119503230464,96.62343663143493,-124.9276390708565,-138.7178130141654,71.2673221963881,288.49955172622487,326.1722121258254,234.86275184597525,220.05602221435345,388.41699752749116,619.5089278040482,690.3758826943944,504.29955076331873,190.28137974684398,-13.556334546831948,24.495614785377327,217.18779036975926,355.293061041126,320.03315095193994,192.61092980969548,142.25812996920067,219.96536681027257,300.2988885834471,242.12614614503335,74.30026256767435,-19.381463962038637,99.53203734158487,368.6398931990282,582.5069278565667,592.9013181180364,443.4802831653641,314.13045341774034,335.3864289674484,451.0196532052139,471.7917154054521,288.4484458365259,27.213722619628584,-54.222631567122576,142.32533216956804,408.4784872955847,439.02949558312184,183.47649046237896,-88.00545605035829,-102.47500847254635,103.74136839431003,268.4594163856575,257.4956444350368,214.17601161512124,318.80838741040884,506.29479107598627,539.4154589145137,339.4210415587762,118.6400410448968,124.82337202604333,327.3296118384436,453.7757079920221,331.1212427167176,101.35567871078588,50.660656143852535,270.60379262267764,555.0755679581919,632.3757440588847,444.70890571373434,171.9815102367488,18.4555648056363,27.624110203442527,104.81789936397479,168.34007072419465,234.53612391283227,359.2953569969651,528.7947628248769,631.3239558523121,547.055852197897,277.0111665786661,-13.674318618086993,-107.80900110159558,65.0384375327589,330.776844233602,411.5978557002856,206.65550300864732,-77.33339604143804,-120.15076477230564,172.09801169613235,552.8746108433475,687.0540283127852,495.37728258014283,211.48808852596895,105.40290617497723,202.99334296901955,308.4384088621733,266.92204807230564,141.30727621606414,110.17947434303134,233.3312231323887,371.47854350858944,351.8776412107413,185.28676799776463,80.82132801227274,226.56526133467543,564.6665055649212,813.7768039634295,741.4495627614451,412.484764250202,137.69189744503814,155.46503789955884,381.9199630017712,511.71435017429104,366.47614839399307,97.46179373324838,6.621065235081767,192.247302108619,433.44488828610935,447.21342933109696,213.47337508107827,-11.64571550423497,-2.6617131680592054,171.92020854794424,235.09814858808818,33.838325519244876,-265.7047015895218,-348.3073091220849,-101.33983006692371,244.3880223512877,349.816728681375,126.93016796576174,-172.67708589659966,-232.26327485708285,11.625520715969216,365.15712514684384,659.9653969450193,949.3540427743155,1368.314272971033,1847.7890659568088,2073.2240137566837,1779.8318094421245,1053.7830596098256,285.03807857346595,-184.0765884784234,-334.5286178270868,-396.67460996625374,-546.0943510119554,-713.9855426517726,-696.5636506596647,-414.87897775413376,-31.16950386852621,201.391079002289,189.92282097047354,83.45140739657114,98.34998172595907,278.4607628937527,452.10902753448863,430.9834617352546,227.5805111672878,49.56651124049025,81.04884104271595,295.1163839757775,497.0681763562158,535.486269718014,441.3798751579922,354.4437364771025,342.4215162946709,330.57449506800333,217.0790898820533,28.479145966350135,-77.18330411559124,26.65882419391527,287.9849137296914,514.2783064640176,558.7998458489717,453.28155135632755,347.25638840177163,329.9284660425414,337.52670790154247,248.55383529314193,54.54375386840226,-96.77522792881328,-49.78611905489453,178.33063514303532,397.7837986119648,444.46501438112494,355.5190414955723,309.5412727366684,393.69661729756444,484.3710205640349,406.04574029540373,183.4671086072952,57.72499678008655,209.8241438791177,512.0776772703456,629.9709336727753,390.5005943158453,-1.117717510356864,-161.5254412242653,62.518954539786236,429.6381468261376,566.6956611695223,370.12344269440047,108.43850095237431,119.55898893628053,436.8709130020322,751.0259196903663,746.7728084480714,445.8159813771794,181.35875290347056,235.0718386805353,537.3162914865137,754.4549107432849,651.7250279209902,322.822902951933,50.72814922757962,-9.147903178767901,45.50173304682105,40.96746196382125,-41.89086368953959,-66.51506223877522,53.05542957483042,214.96935573495307,240.53747929018218,99.0619996443156,-32.54094977574675,39.09604351816738,295.4929107365849,507.8929888171281,478.6444206517901,257.3340390824973,88.83388481257833,148.58132899495024,358.0153922236198,480.59584980566973,383.4025945791823,171.21298055585385,55.382738064280275,119.63487546132906,245.79376262205307,266.1515455267877,155.91565081786885,51.40120454501134,86.71862545342314,239.63830662089205,356.75324374134493,327.2383974656485,213.16096169586,188.95673629797417,346.56025603097135,575.3932665850549,660.323927330559,509.0269553970445,264.8451775606164,167.15810119496155,295.33441490535085,475.29361619615656,462.7459423956667,211.8022643750706,-65.75167819240014,-120.32888437375131,73.88714337813245,298.93025697391255,331.4265075594742,175.34271005428067,38.75189222740963,91.01045059565867,276.41225211212196,390.16630911168687,323.2795759958481,189.90378716548642,185.43243973954554,340.4207492841956,469.2250112950021,390.9038551568432,166.47429318244048,53.665878019727955,208.2031669242683,482.12199140172345,578.6204052401323,398.5142888844714,164.23058310655364,158.4450835888358,380.46678385595743,535.0875642805846,377.3407037046866,10.781661930781564,-210.81216023760263,-66.18887763955021,298.9763870856476,536.501939881446,460.01601977681486,210.5198418696206,69.63440112435671,152.2598689089885,314.3096315939959,350.8244971316367,240.27991112498538,156.34151023444275,242.98815461990958,422.60955730262606,470.6548217568305,280.4635576961294,11.381713607895682,-63.69798849917121,148.56364831554615,455.3387663928934,578.854349924007,444.7386760474605,245.9876216485611,222.22508752738565,398.26803654693236,558.7117317499866,479.83022443700554,173.37379295563167,-112.21313462857938,-136.35429463197158,96.20296670899562,352.98863434308265,423.0590597424346,322.12525827720225,231.3810848242608,258.59122537624313,316.6646832474703,262.96658120085795,112.78110840758463,44.64876027663866,179.66764454118365,410.16633965286144,502.3142766183534,362.00530146696474,149.41499396008385,103.43006336162166,275.1988673453912,469.86776976720176,455.48400618485186,207.43457507693336,-66.16840680180658,-130.47462980652872,56.85020704634965,323.33103931254647,459.36648179137103,411.8751742390905,310.94547646741944,316.34140710592305,445.7315439808239,563.3501587052305,541.8990907578004,417.5012269818688,350.29736395928126,421.75126119852143,512.5370875549561,435.56995112264246,185.7051340234849,-11.861806945818792,49.24982703890461,298.4283007498188,455.6474678124779,362.13409232933117,162.79541648229193,104.2485326848783,209.5402075643961,256.8396466956169,89.45391658339136,-157.9772369190971,-224.14384246145318,-64.78881210842263,76.14451222486754,-34.13205353474743,-325.46339438502304,-501.3372558079439,-377.7666035798592,-69.3522625176587,179.87321403541813,293.95661603239637,443.28316161024594,836.1469263570664,1465.5873468592654,2065.911777428497,2304.4431200362565,2030.607502725935,1381.271340117356,666.575826640494,132.44547441130084,-196.38292025337174,-449.6366660648612,-697.5980950966489,-838.3191932041691,-731.7465860175147,-421.8327225491682,-148.47561410051406,-94.85072771303308,-168.825470748151,-112.00513620755893,171.1637617526879,470.659254787512,510.5368213342747,288.99204306304966,97.42755662666107,184.23827360540375,462.81123025848336,609.0339688253431,429.97472901036923,78.6791291250878,-115.68899971307823,3.276056161154073,273.5057272052102,408.84575764787945,305.6495264851265,135.30708918887944,138.66544451408544,353.0720801052455,568.6772121332956,562.6680713494493,354.4912094501865,192.44037904770082,275.69815026496644,521.8021268451064,651.430748053182,502.8506164951157,216.51524925504097,74.27740849522341,179.55411983821642,350.9363375453491,348.4949120496727,160.2327807359484,11.070800255216465,90.0110402424088,321.72479454485875,449.2970174713326,326.8515854903887,82.21018528891052,-29.556825960221754,96.68486622976192,323.0894844196144,447.43811672915433,429.24557787321714,402.5121239461194,478.42093900032364,587.5744817499832,556.3860368170788,329.1945025390334,69.98540985849829,11.219895639547353,208.2750204615238,473.0382869764713,566.9027573621922,447.884218331476,306.3454887885581,352.6044601861812,584.3952277306255,779.7191822186952,721.5078019863683,421.56451919408556,114.7040219158943,27.82075761261372,156.06032957870798,274.55494689351804,178.2768568778012,-96.17229033356467,-304.65890094809805,-255.59797384980587,-13.436327321758325,183.2795336245288,194.70383596058716,123.34357706142445,161.64601573932686,337.1690309969412,474.0494910620737,416.1669957074406,226.75864167958667,111.35965605807574,163.6816728252687,256.2912938770175,211.3392948397663,34.58596392569296,-79.95548459315758,16.88235934196374,239.18212858714182,349.67917385649315,229.24880618282958,27.247502334271765,15.223670024332334,293.1814817341078,664.8585182702213,822.1618095987176,647.4456700909712,317.7823619541526,114.85183561206038,158.0722669862017,334.86154521991693,458.998863518554,450.80597475434513,362.46858728731604,279.11996774983055,236.47803324433357,219.63837139792676,201.458306324671,172.0193482810966,149.05956695908552,162.23842177065148,209.76885650142566,235.89307344454048,186.83536503306414,100.05288165268615,94.25542942109793,229.573539945371,404.820619640115,455.8070415408352,359.54107202366674,274.47202295799343,337.8043048697609,473.65145859200754,477.49973646812333,285.95137862422865,84.84210068516012,104.35337127555546,345.2081508432086,564.8471968664762,534.2864647979943,268.0266801738498,-12.593110245660174,-113.01081560477824,-37.2369345523134,60.603442314888504,66.69131233381472,30.76368381520209,92.17697622889077,287.94379887820514,464.96705115703634,428.71345632936806,189.58499848830894,10.163935741683218,145.4825252598957,539.0358108519465,841.5065935690952,773.1692769674091,432.44651273334404,184.96209209208845,250.53017938104233,469.45830982573455,520.2260077721644,318.5119489754919,111.23415070779205,156.88041977408682,393.6539467633037,510.4295308136344,333.17988320134725,44.42159443223995,-39.25262447947272,146.79411087197718,347.18487688200497,314.39473330029216,114.11660511377178,29.575237441444386,199.35731113381593,447.2531637180554,501.01973646045013,312.0030303134184,92.46554223882076,56.96127965737173,191.952303850425,299.2274651451847,227.39438784755828,29.220425494298595,-100.01644179133186,-24.338021572701553,187.0363923897283,314.15678511439376,208.70287741885778,-28.410326221337172,-123.81015715829857,80.49143131560402,435.06366544771976,625.2445241548261,506.33507205222594,249.33266097775333,135.0631527027917,253.16957310527275,451.46064211946333,549.0800037470804,523.6041757522274,473.2252919049562,461.0606449943626,455.23847830768096,405.724373231994,328.5313602166812,297.9483859237516,372.6775934159683,532.324012788594,673.9057231996273,683.5012497999235,547.0367675275836,393.1330016582812,378.77703049440044,499.3224806230789,549.9051767178025,340.39940993795807,-50.836291874899246,-307.03527077894125,-202.6462324930981,134.514933198915,352.74709099287776,262.0162953715643,23.95011731897103,-71.23480964133871,40.997478573520105,140.65156881406676,10.987002976651903,-290.8279475511923,-499.585980759791,-449.0336078577725,-253.8842703101751,-166.41473400617085,-278.8256875278451,-398.8851793285073,-228.89165724518023,339.09632146520636,1111.7924355130401,1772.080870101391,2147.805731902729,2283.9678804240266,2265.495487488258,2040.9697567607775,1493.9379658020594,676.0027844898032,-125.67841600953594,-620.6673478513898,-780.3026034941731,-801.3123175287344,-818.3313234573087,-745.3964609827732,-448.3084863440191,-1.186772608931089,328.86707317300943,356.45740114439445,163.22383384237315,-20.268968783577012,-61.19365123011724,-4.260562692988126,56.04536348885464,106.50871276346851,202.7693469473673,374.58907544055296,577.186733590576,722.0933752972587,742.6713881666415,651.6561549180977,551.4077369518645,555.990464658186,660.431303379568,701.0124849006713,504.76615746154374,102.17856509221546,-252.74472159665743,-320.3822172566327,-118.29331637831332,115.70908793686444,195.3635680028504,164.3450141746637,180.69832396047707,280.06031524200915,329.60824910685886,224.42381604154764,64.30932589649663,74.23420561038161,347.60946580689665,707.4060292012299,852.6165405315131,647.2339516490023,256.5946083737583,-9.583906644634169,7.413440772794779,177.3925937337953,239.20984993756554,86.5813856702129,-124.62341718451616,-160.6307155485199,28.475248355850358,269.94847413603014,385.1411323664481,387.99104053879137,425.38355690844503,553.2812093869219,649.9995036005166,582.1038089346158,403.1579602233637,318.6454282803497,448.9839384411351,676.84679556408,758.0971003859926,563.2651750085065,190.27248753511375,-136.12163857967704,-243.57805597457818,-113.6313064003609,132.1235515915744,321.36334305123825,348.6066394151598,251.5311988042751,164.34520563086494,166.5596340690902,192.09593601333836,131.58552150251361,15.983427826035284,20.72190486349765,235.2512743726808,481.86548116016064,465.0294034114017,124.15970892371223,-239.80144177518022,-258.91020593451015,103.69292372730516,512.6942732305848,620.7342471854425,413.86186791424024,172.71617379455418,137.85556145940677,272.8666912298257,356.1697357773028,253.21768985318752,59.61662604070467,-16.18361211608357,118.06793320740252,344.63100904440705,469.47999460398574,431.78649214705115,352.27572151251803,363.09037453686796,426.0252912564856,377.1842927895154,159.26936450045773,-56.9338332778188,-47.179840317443784,189.9784417400257,408.4781294440362,395.95440581581715,224.18533797868622,158.92381323625887,338.8303578766917,610.8832497843047,705.0220996827916,524.637564924417,224.83174175765248,29.424920612062138,21.255467537724414,115.29871301712687,190.24191769350114,209.43469623413407,222.45661212144972,279.3521349810521,360.75864452572876,394.72814623011357,342.545671865778,261.02397217630784,258.28904976676665,369.11204768072787,484.30158379140335,437.19838884433926,180.8101737342264,-133.4193725196858,-278.09986615504397,-159.03150712172334,105.60265255639239,314.79823449671323,377.777443037123,367.5813239119141,397.9134927390327,478.3944263328986,509.5602626192383,409.1901321723141,218.2838123076483,70.14352489910631,61.874613029068406,166.64651464648952,272.5111639897986,299.2608777126118,268.5997386780694,256.2059609701703,283.75047426525293,283.1042578654113,190.5459861159652,64.8322711752809,61.32239331029718,250.4957232760766,489.1265296161192,540.3955076442962,346.48472971521227,127.11223119358736,146.93308561411695,405.0847339023387,628.0790258752961,586.541663222467,347.23703301669264,154.75423119620885,116.37765217741031,107.3855043257584,0.8629505492032183,-114.56922140797265,-38.66827577242784,252.25061058352077,525.137372200219,537.025297669432,303.3633847922262,63.2046436358093,2.849416966477955,79.18784527455391,127.66462619671077,86.95757315586354,63.479635164380625,181.2263180527086,412.51014387018205,585.5333268305849,557.383128575068,368.0276410644867,213.7816091576726,257.349681028794,457.51556435715895,598.7432613581401,512.1112494092264,270.71217506324996,139.9774176151496,307.14082034399763,664.696410801565,891.4262083493794,765.4409179611835,386.3961461099313,72.01676479516671,39.12834240285296,203.43343238190235,295.4809388129059,153.78151267021957,-114.54190676818727,-256.2206692713718,-131.619612952467,156.44921672628226,379.1223180315704,406.7951481537242,311.8714035833541,256.36530813864914,296.14765290402585,318.68047636362024,186.3310917487904,-76.20431137167773,-279.4174265890461,-279.23998056077556,-161.71101569392403,-157.52700685367657,-349.7123319993204,-514.5669725964126,-318.04888976856506,325.8384122277575,1143.185116126979,1767.6177913935176,2071.48630832238,2180.03800870717,2190.821861318225,1984.0717646789367,1378.2104023188485,434.01460515006306,-486.1284494445599,-1003.1169707416402,-1040.6187565959403,-840.2916929245882,-689.5099168441201,-674.275417456266,-685.0253821627401,-596.5158291477123,-394.0585786963627,-148.16934441147973,73.86847339943768,249.78530607291836,389.21264178664075,509.621826304024,614.4385578518375,674.3633389310344,643.1213699973329,517.7757774778123,371.1940927078969,283.1860567510154,236.9863185961867,139.72002962059133,-18.55412591879992,-78.33025606034187,131.5705310074223,543.8090890602501,844.991690542792,782.2017973810887,441.5399907425918,149.95014806639855,103.91733469526201,172.198725448303,105.18161245710282,-120.29390626019553,-249.2293074973461,-47.85406068743592,409.7571885159848,799.5573839967955,870.0176468956774,663.8148430503898,418.86921383376676,295.41804495215865,241.07455454166774,118.69716340044218,-78.19608534027675,-181.86467705979447,-34.686360437518594,301.9433462238904,556.3892736435516,492.37733672700614,153.5091912800706,-153.70065104923177,-145.9496206573872,159.50063634941387,469.645561984282,531.150989023207,399.38247789745196,351.69911588432024,533.4839369989193,759.1645417101383,732.7778096931248,438.3046305458033,201.73281674740912,306.29606089518813,621.5083916470722,734.9054733451509,457.9919402565859,78.40749277946657,19.99333587259296,318.4049729163433,568.5883496924137,416.73381160463015,-8.013563479930065,-242.8361190603906,-26.25378425689577,416.45878239426463,634.703145009673,421.5601794912278,-20.753763582851693,-329.55501126018197,-325.53145753477855,-116.99576984876839,70.77405313604628,126.24046367649125,121.26534426778059,177.71964577426616,288.34213897476275,301.41367612580785,108.90377205687429,-171.5945322794629,-266.6417665195801,-36.480259040493266,338.64145516313187,520.5943725330538,369.3669269875999,91.33556592744162,4.216072284836423,185.9062359444119,405.9295063909575,405.37187766127744,192.23718698228208,16.022520727315694,66.67481707920525,258.2630444096949,346.76250987032853,233.05228920013334,86.73882389931308,145.75240981316,434.5943321388466,733.0586407705665,818.6370156242907,687.9215430159979,515.8522931256144,438.3946252869506,426.7386111198577,370.2007473667937,234.31516077998492,108.44362404071025,107.66038431475714,241.415776752944,380.43215085215513,366.50612028704916,180.96252602819442,-0.1557761465595906,34.700394784198814,289.27167949562704,513.4457763201478,458.29332381784656,170.37063374082052,-32.28361992681721,96.05417645747174,458.648418690693,734.4622320613033,729.7904791295618,543.4079577696241,387.43959672455003,331.5342398850783,284.00970607354594,179.60360258920306,90.88444293596103,123.96009714264018,261.4832886658863,369.5502605024502,352.2300297669712,250.1414961114766,171.07803539617962,161.81578712131815,184.37322561771413,199.5410844063905,221.26979380816186,269.10314207414524,303.32034035751553,251.7886756525441,104.23059116150708,-46.248895547432284,-68.31621858446314,102.39873863788213,405.7912145915271,675.4422681762235,726.8144208771961,493.636654419377,122.0328230782168,-110.07215428728317,-40.06353490118852,207.48599680490722,355.8921014526774,299.52710319592603,220.50270994034807,329.87899934507504,561.7276877390846,641.9257395534377,459.81528489677703,237.9784048337301,245.57617293732267,425.6646578187512,447.8566165348709,139.25929003511865,-261.64619942757827,-357.12511178321586,-31.572259374393624,445.1499448299889,727.958912551944,720.0157828026655,583.1297687941802,523.6099704634245,625.8780715246222,833.8331956435966,1005.00099370674,992.1600132211674,755.9569026646802,426.83471956995726,196.92911961452387,109.50693975723772,6.530240515291101,-248.49500147016883,-527.0856477018795,-518.4470817883662,-97.71453816589104,459.80626493234325,718.2562556504784,528.0137144171755,164.2920711484818,0.8141154533785961,104.7759475386928,207.20570656510208,46.07296929785684,-329.7855820584838,-617.6477636775672,-580.6873970276066,-279.5486158844301,-2.2370091007163433,7.903279644446122,-237.1665617699898,-490.86367818454494,-475.6038250266634,-77.37061717953937,619.3739641632753,1435.1203490407709,2192.777026878916,2722.2401346556076,2843.6509040265933,2445.0068161719073,1622.8626402517236,706.0707204260627,57.505656112306006,-201.28650370256153,-267.5810657073563,-436.46159868494584,-791.5392109779532,-1122.777381896834,-1156.2209128567247,-850.3253020836582,-439.95174435534085,-183.30772186762889,-98.48403600827635,10.284037065293287,273.6690409395466,567.0566578011893,648.7400882330503,462.49433367417157,227.78150316925797,196.9606739882478,373.23953889412496,531.4486423254398,502.83716798702045,362.2299908936948,298.06670840201645,355.98546960921016,393.124792259977,289.9651763582299,129.54863050056912,102.23541393767911,254.28536461326053,405.9072624528785,357.0818051207086,136.74905871159078,-15.255783977174056,74.81851980107231,305.9333785470627,414.73532332582397,278.49414965171945,51.89637548958805,-12.845444579626749,161.74903742578618,419.8772717563224,552.8875943851949,484.60063348068206,290.0948817348731,103.56297781346298,38.06595257990434,134.91703630080016,323.4445084314693,450.71624980890033,420.78437533041443,311.57584140292107,293.7203249786291,418.337510539194,555.0733200445972,581.6040084477445,557.1943764924597,611.7050436750741,703.2160919797798,628.8542190002872,323.3273165643104,26.516409391754394,36.52543828650153,341.69549919052696,621.7108830179454,622.8338619141689,422.94791818199616,281.2820311140747,323.6573662621325,463.89723637405905,574.2200268380683,612.8826676058657,582.3033211494505,470.85501569494903,290.2146538110177,