245.82444075159069,-774.14666370387,-233.17245418819766,1304.7511338271925,1777.5858454328506,202.37939229233567,-2032.1676425585952,-2684.092414177204,-1094.0110535397284,1217.520883890694,2222.8516477922803,1361.0131931138947,-128.17359211684564,-595.0681715374324,380.32988978852336,1629.4090517986504,1608.079399873343,2.547897408586659,-1877.9696571206337,-2356.877652344258,-1019.0423227786042,948.5528221078945,1955.0810369933608,1428.3847886325996,139.5818371453236,-628.7017035302692,-174.06015625678825,1098.1561424098657,2004.0376664079788,1574.0833950847607,13.097276782855035,-1322.938135641615,-1184.1816028344974,216.62567556003833,1321.265183357498,904.701796672852,-509.08439482029365,-1208.9902507339639,-280.9315388825166,1293.666233255435,1748.641021306317,571.589457127963,-908.5834029341017,-1053.1932171139988,227.14313847697028,1413.3274220903256,1142.6482001900897,-244.45265226317332,-1118.6203899892262,-431.1043548040365,1093.7963324787424,1780.7968113732497,896.0020595952196,-532.0436136943566,-886.1119923813867,202.9199181556865,1440.1520940171124,1350.105523787014,-21.49235663542936,-1134.6482573274245,-704.3610331955506,809.0563092993184,1687.5219957067914,899.7866013575624,-702.045573953782,-1320.9277012713628,-247.041792089374,1328.2309964461601,1657.8263126416966,415.8641464851925,-953.5492792803792,-908.0254418465014,431.8728130778091,1457.9553476269016,966.0347340489916,-441.1970897323397,-1067.751055041963,-117.4136521388917,1358.2101542954892,1666.4217184636702,440.5777134437052,-914.7218652857928,-826.5746600648957,636.226722421698,1829.8001463735768,1404.2317687530194,-166.43658425181053,-1136.55025928955,-475.5973532866699,987.1147211166087,1547.5319531215637,585.0932077663902,-751.8659289828598,-892.2715293365623,348.49171342039205,1567.6056243514456,1390.082792754605,36.870610507673156,-940.524599166205,-439.3351750186821,939.2004416557724,1584.4900939240865,721.5225908690359,-698.9006956735908,-1080.28055143916,-2.8100864704012967,1291.789277213602,1317.3372410993002,52.605467865941876,-1020.9223220443158,-618.8073888591671,848.7810387282038,1720.7256436500197,987.7875509495503,-531.9446335375668,-1121.8967187926385,-146.66392934487675,1209.6279070569997,1315.2054495559487,-11.144016394723007,-1279.6420508790675,-1043.5319927178841,439.90293559228616,1516.0876923414846,1036.228874051612,-344.7224657532533,-951.5696342271752,-29.30534789415422,1387.5230002353107,1655.4492906426635,397.6820657458623,-1050.6183501454489,-1125.3615710032423,224.62246918176675,1488.7639926787333,1289.1974574547276,-84.66472007506458,-1024.1518180916028,-435.32873794420203,1019.8177370755861,1688.354584445464,827.2074020261198,-540.8108975007175,-811.7077766947781,329.3735565608147,1520.1852955404763,1289.62307559719,-214.59206192433564,-1349.3899228329046,-840.1747664105411,747.257862293256,1632.3802883331864,843.7120585543731,-675.646404066354,-1152.226441385347,-14.232382641380813,1459.3224835596077,1611.4747001998387,302.92715863600097,-945.6287195237131,-713.9000379614542,691.5642289257868,1611.1785111516597,959.1294261371849,-523.6610091365424,-1124.7692387116745,-129.63410805498327,1354.8469829796006,1655.2836766328805,425.6085056829195,-968.6696887352234,-994.0586150837248,336.96530989252267,1505.731410939602,1210.9698797764731,-178.785520018017,-1068.7120102900885,-455.75679138276536,941.1428378823091,1513.803210208601,611.0425439300144,-706.7101199350849,-879.346791344888,344.8729653799902,1585.3588882489848,1396.0856398635601,-52.435699682828556,-1128.26015493166,-593.3590682451161,958.6821531329745,1758.7956837882687,883.9112124059234,-681.3177478053452,-1176.9070099675978,-90.34376093528317,1269.7429069791513,1307.352977077702,-5.655920114842484,-1103.260095564629,-649.3788859465317,905.7700271045398,1833.126295457668,1104.0344894777172,-436.6471786790074,-1040.9432917811412,-50.0194882675428,1367.7012242838423,1561.8420098068732,284.3953539109873,-1031.3352013116512,-906.5504387418233,497.0640012797997,1557.6793751538062,1035.739097086151,-514.3071267306274,-1369.6815686973055,-593.0234400990615,912.0710636389272,1449.0940696155608,477.47862576398114,-778.2498163040615,-759.4377298448226,610.108951002134,1822.5365863669908,1514.7242805703954,28.89735179635487,-986.7679705035853,-459.8333676737007,910.8078112590888,1493.6573408697554,604.4817631590544,-727.1063865788072,-954.1958281936875,212.64562385395206,1468.581637532063,1388.420503043404,41.85177771341907,-1075.5237708264478,-725.7020749612989,670.992099219574,1515.9510605031523,866.5759274231127,-469.21788204618906,-862.6059333068733,223.9818467715271,1562.9877387358126,1554.395544479797,102.10537419120374,-1221.1151396983776,-953.6354060950958,573.3996207265756,1608.1153547830606,983.2784458274151,-557.0755205601101,-1226.3731594563408,-239.89503243765023,1311.6388691210495,1726.2658173207715,614.1152322077743,-705.4693130110707,-739.7261258203661,488.4652281865152,1505.8236615259834,1098.0138671327757,-299.5789195274079,-1105.9908955802662,-409.23938650202194,980.7960632886295,1448.0255942404117,418.86693248433284,-966.1239776824422,-1136.4235061182487,125.38557425951618,1438.4512232749362,1396.0700744524413,151.9466152900829,-792.3458682908333,-336.4418705434132,956.4729147673653,1530.4624096906311,655.2016055883746,-706.4304347749552,-982.3166933121227,206.0998218908366,1577.7638936366095,1607.8775731894682,241.79627158494628,-1025.2156872750118,-806.6524582637378,631.5833069292356,1679.145677400105,1197.9353873047642,-204.7327735102117,-890.7964798718094,-77.88145448015612,1262.7589693823945,1530.0542234361428,347.25520208596294,-993.4014586647908,-1015.2612909078839,238.51359874201228,1252.8294840464591,795.2159751797232,-643.7744490657411,-1396.8737452151454,-541.8385092739227,1010.9287108079257,1536.016216791265,467.0296507488191,-945.0355699776097,-1067.6503404909224,224.3251980659996,1397.7013217944502,1048.332837058144,-426.0386371985486,-1216.9935256443327,-145.48207758897053,1965.1421549018646,3142.942150895858,2379.1024966632685,635.0868993796737,-320.4949532015346,136.37928536633714,938.3863285606175,711.2590885813873,-568.230594584621,-1541.025511768971,-1062.0453847436052,428.9720984405298,1346.3714164577964,729.5589871895121,-658.0419960042877,-1171.325068291329,-146.31522401586167,1320.711933146362,1589.6248877156786,337.8788543095957,-1050.2436794078271,-1036.4186455908348,329.6435308707437,1475.5456805720955,1116.571422643135,-268.80835916045265,-1007.4576747406613,-189.99528509911974,1258.5866946334293,1650.7398702908006,507.66667220982083,-870.2801472013396,-905.0744433273956,430.92745742305624,1583.7268876156804,1212.6466492147683,-271.5369748223878,-1190.8682354708767,-527.7826378306343,924.3861415471921,1486.2146232423077,514.3654063491607,-865.8880447255194,-1033.3762009432035,294.7309878057423,1726.16245735695,1731.1812542557143,340.5140227267808,-894.0812234059365,-642.3037233404789,708.4028487978024,1501.1820358186258,716.9476542168293,-827.5768604044948,-1388.7063026132403,-297.3482004115862,1254.6074317678576,1574.8414081611902,412.7548301594301,-777.3262515972706,-555.7354394013875,818.4821298882325,1706.3945049857607,1021.538137749649,-491.4570502499077,-1112.5766716383391,-128.28378972310307,1350.3862324735708,1658.0905474165904,467.87681062304625,-844.6263727816279,-764.9797534017815,644.3792589179462,1812.304461228139,1432.268053942346,-61.70652734165745,-989.8679781720534,-338.11741925336383,1087.4500804655338,1588.9669165609052,533.1829624359934,-912.5418891899365,-1119.7096843953761,126.364416103149,1379.9126077114654,1199.4565854537607,-198.8254091809885,-1198.6554364615515,-642.3444618356076,850.0585583841377,1600.7662495011314,790.2728079320713,-622.7326352214965,-1009.899151384241,70.90072331914476,1385.0212084568618,1437.8845323675628,173.45107143989898,-976.3014155333251,-733.0090040741898,576.7803685962973,1413.6275361720614,802.5703927975693,-542.9746048802235,-1038.7912596726933,-55.75518209431697,1335.4942979922519,1563.7516590180653,346.8198526731763,-967.788861701419,-916.8572808105699,416.18728987790803,1487.522502038596,1050.6504220388822,-408.15413376632586,-1210.81959279407,-408.3654270827652,1118.0222566662922,1658.9202436368007,641.9022875349496,-711.8942476384206,-808.5047417663168,466.83245971430637,1619.4676352151487,1286.0314069675658,-180.02586072266382,-1113.899106273664,-456.4001902424679,1032.9389200447624,1649.4618503910665,687.3934219095742,-763.7486447771004,-1059.3963295325202,140.71729807758095,1490.0097726263607,1468.4986165216285,85.14605339145916,-1139.6339688128242,-884.6120792497675,498.619326381843,1411.8805339484313,848.0874668311498,-459.0125190418588,-895.510683832458,145.61262201203894,1531.8447027132856,1677.8172604907984,380.51724015957325,-920.772209562088,-777.7204877341807,609.929913853841,1619.36569024706,1057.4601498257596,-479.85737139048155,-1292.2467760198908,-511.9336040713143,923.5415434635311,1365.0402610614444,347.56694160020555,-887.1665665220953,-835.4619954426887,521.7114940730172,1683.1787537455139,1349.3527362930408,-78.06711643420243,-949.0747772426098,-256.68161983210274,1205.6776047426017,1751.0062536887808,728.1990803007288,-737.2404410576341,-1031.3891965248904,114.18557928845978,1335.6814804167884,1208.4828087460826,-128.62897560814514,-1143.3639293541985,-665.7157906419399,777.5206998860441,1565.1297093914438,828.8057114272344,-560.5346332430734,-992.3128623779083,36.86106444057249,1341.0917368401135,1403.5460175936819,127.61938676088785,-1032.6273591150857,-727.8099135649964,737.92900769407,1747.0684705614372,1210.6271740785728,-205.7038905816609,-873.5671749698544,-82.04486724751979,1168.360444471983,1356.81485179235,219.27229629363606,-946.9949354976028,-793.137169053711,507.7037760540105,1440.6824626294062,886.558282486354,-567.5950879286114,-1256.4325330353079,-318.3677163400349,1293.925213013885,1843.711788920489,749.1257384753084,-754.5672838862515,-997.3664455848889,248.1691128402684,1525.4842875302752,1365.9629497259077,-38.07530778586976,-1074.8382003945028,-579.9031781848154,831.0041186665364,1493.5820454698849,628.9295015368969,-760.1928379050134,-1054.134505238869,114.75971575290765,1440.3690929514846,1440.378114217631,146.85616673295706,-941.7799787222539,-582.1288940713766,791.9590589541101,1570.5878711947246,819.468938077993,-635.4745710068358,-1138.9134425886632,-98.70429977598562,1324.8942918856105,1534.589805378567,319.99366081092404,-902.1313748107526,-714.7721413052458,670.1344938886256,1654.95348584636,1094.6705377271921,-384.1474512704344,-1099.6388960999107,-239.7191512976343,1214.7442971968874,1619.0424871399987,540.6747190523736,-765.6323801039189,-812.6997815100443,412.69460962363775,1442.9338586554002,1021.5564246541428,-443.44053242729376,-1325.1066686244098,-619.067190355712,909.4551812630625,1578.7863318506654,683.2466097192628,-717.693429005254,-1009.956430605503,139.18132893911024,1412.5512584478995,1367.713877994682,109.13071746458932,-825.858916004667,-256.93236115108414,1235.0619204236475,1940.5557069358858,994.5762883950935,-589.113255214342,-1051.7039454062435,92.54673896738133,1490.5877311236525,1507.2887102988252,107.22119871338097,-1118.7586988329656,-803.704316104592,623.4092963773556,1456.2137431338117,694.4741410016223,-811.6306585639776,-1356.6704695295282,-339.8285962442221,1063.1162496765544,1256.8679624783574,37.58060931870628,-1198.5444810569302,-1056.5112853759115,282.2291952372807,1286.043316395316,821.7031334899277,-562.3796551547747,-1255.0355267265954,-381.69823823691576,1250.6510816493264,2097.8924900531847,1600.2629413562095,721.6592322514797,734.4108097228274,1683.349546278112,2304.6662772634086,1496.033849699975,-338.2396506141697,-1614.1309054997796,-1243.3044943777306,185.6567070656173,1041.4595332692088,423.95030068101283,-873.8309887387475,-1289.8890476806823,-279.6320256687868,1051.505309150766,1208.6340415234556,39.70967219675129,-1062.6691664141015,-759.1845431016915,667.7177729343437,1611.84839708016,993.6595469598542,-475.04425097175465,-1092.6112106849944,-120.9671496533338,1362.1832142717317,1691.1650118002665,505.30104511829006,-853.6197627292314,-873.2542085552809,423.6345079449879,1525.4225736227206,1157.4540841054827,-272.1279659689035,-1135.91151524962,-434.80345607530467,1056.7250430223714,1651.4590648342964,657.7078435494964,-825.9419484210141,-1147.8698261963152,23.586308824706222,1335.2389628230883,1318.330928267624,80.50432214458242,-845.8977165991603,-321.49940814308536,1049.1633369956276,1626.392849802579,676.5087868582382,-738.9761530853269,-982.8675140031919,245.45756309465085,1537.266692922455,1384.7813784257662,-81.04532257118134,-1226.2869681261677,-767.9841029575047,773.0272477436594,1672.2061292208998,962.5653086416373,-479.1561670963699,-955.6465384893992,90.62285393755913,1429.0173551729686,1463.1170577952448,102.11081875638826,-1087.2650962864873,-663.2420938680461,1002.493571819247,2093.071970897212,1387.5832711794912,-348.62566091327756,-1221.8749779392003,-340.12416066886544,1211.3627726352636,1636.1309169523624,460.8259964605201,-972.2512507997147,-1065.0662941175908,236.60423781970457,1429.4283467178275,1185.0674837369038,-164.10544779863844,-1046.2443609452573,-460.56826818268587,889.7774384352892,1417.4270035474688,481.92137009656494,-856.0199879037939,-1031.233704701939,224.36886175054363,1536.9142233842103,1428.4474968256056,5.328918998099605,-1141.2612274346397,-734.1008440135859,738.871534356862,1587.286818904041,853.1916106849053,-602.7183678651069,-1104.788687523626,-91.6478088490023,1247.702191285063,1351.137329667044,84.39170099219733,-1097.7608388050517,-812.4106124169509,662.5303038803506,1683.6693257302093,1098.7375161826583,-432.71516325282295,-1161.5684625935505,-219.45609703761596,1384.2087268506334,1882.3481519523511,736.7427865257226,-761.3429251151437,-966.8092414739772,250.07822664216584,1384.4894588909312,1061.5346285999585,-360.01991544250876,-1206.7679956910822,-446.731682469786,1093.6457849108174,1673.7282435049608,655.1687737367407,-749.3033757926743,-871.7046186019975,476.71401170189426,1768.2858206332328,1503.1974014383982,-64.97642283464626,-1208.0619967503158,-692.4144015408817,818.0902415681454,1533.497601369046,596.5007378493837,-933.7868585731253,-1296.8393830525365,-45.534327833088405,1445.4370826890813,1546.1364132029032,210.65500219740727,-1001.2659904845692,-715.5371440728068,712.5473926971549,1643.7981901611258,1045.0542491674355,-346.41565507044226,-892.8001455949149,57.44563080771202,1421.5816666591745,1614.8129290080208,354.068306387862,-1013.719702622219,-1027.2337539538219,248.71382428805865,1314.7131533911627,952.3281143505808,-388.55888257162036,-1112.0030395735805,-313.7104080508586,1168.6760669610214,1703.8360163202658,733.4572576756717,-588.9775077900159,-730.7834957679631,446.92775276790053,1525.6548633626319,1171.4891428931637,-312.1168632588994,-1317.632000756496,-769.9438023522813,652.4895143938026,1313.8167685667377,506.6391957055875,-745.7325769210128,-883.1675329981564,382.3657646627396,1716.218637732299,1665.703845843702,306.04825869314556,-838.6137502586952,-510.3304343537288,865.354566265503,1659.5210564443987,884.392925725869,-673.5157721503793,-1323.2927146068812,-379.35916708823385,1050.846014748179,1319.9906119418565,130.1023508008399,-1107.682238530651,-884.180773458275,659.3420826503282,1867.2512151931353,1450.2616966994667,-52.782767462253034,-913.990597069452,-203.10750318904155,1177.7051963411113,1579.1335723251793,519.4501081816924,-785.0779739832767,-851.983513788032,352.44580503595125,1385.0291444848679,999.1124027323336,-406.2392915426116,-1222.9142283709677,-469.834577808758,1059.812827588336,1668.116198769031,677.7883168457511,-780.3962430599136,-1046.267002137879,166.9691090786755,1439.8046365310906,1288.2289000497392,-111.34212776058862,-1121.5813935908518,-541.4564343788122,1004.5034461542851,1790.8214144155058,971.4954253417765,-477.4924021304445,-910.5367442563181,101.862719029291,1314.360192623851,1261.884909424477,-56.228646220661,-1169.0139436644,-797.3619860345549,687.4745887549958,1651.1133947482558,1013.7706522038324,-522.2865828697177,-1229.3466508671056,-285.76531190132005,1276.8196785930809,1711.3452585767088,528.7340340102589,-934.5950316955549,-1031.1811747241627,317.0228045786096,1538.817745396563,1233.9096409691842,-215.4436914400532,-1108.7200972104208,-412.94539114223494,1049.3944209343624,1578.3295462992817,578.6027218324189,-760.7026652983833,-855.8577333928212,440.36049780301477,1674.6600751878882,1464.7805461581768,77.93994964731223,-881.6360962932607,-306.18886471806866,1151.6048735278919,1813.9495498354756,873.9530226254318,-692.2125514564942,-1222.9613613558527,-235.56793953418554,1046.0418354190015,1090.443949723967,-200.29103747682717,-1377.6732197568908,-1090.5559727054588,376.93129953664635,1422.1339427719556,940.3399881980555,-429.9131100619853,-1063.9310251821582,-245.5177536399098,996.225355066816,1103.61634182443,-132.57641315530276,-1238.274104477721,-706.1632345764399,1246.0362399541268,2849.3738917403857,2711.1592342683307,1292.2683757329917,264.8424480039116,543.231055931145,1290.5265577873815,1023.0044263584598,-521.5825377939437,-1957.5612338976357,-1783.807331955489,-122.71126075325226,1335.7519171892793,1153.1508366273465,-302.9238834293337,-1306.3417711219174,-715.7421043507705,767.5311760855775,1431.6726129212393,521.4049346005975,-898.6976891703732,-1166.0782412188403,72.08446295335311,1453.0858957311216,1463.2306428156428,176.69910437511984,-832.1102612505111,-306.6247398962685,1229.204350599164,2045.3292422706475,1167.430766656612,-510.15614699113496,-1227.966886431801,-336.87757734663836,1002.0871771343228,1180.4576910101944,-2.5258491305331106,-1122.2979417486893,-795.2486226108017,697.0091269283555,1708.8406786763217,1118.6425896473522,-375.31288200029303,-1051.6872987513684,-137.36150867001638,1318.9702010816306,1666.0807131771733,542.1018720860127,-737.2078412183391,-717.0216864366229,520.8371464232171,1467.2061380939613,937.924798588453,-548.172441800935,-1342.2379878406516,-536.9926535929656,992.8539539016475,1569.4166004220162,606.9468324694767,-726.9778531613555,-844.7914020661174,440.63653023486927,1686.3535187871632,1459.0278851169714,-17.26077876312631,-1096.0459687294847,-574.9037927120819,934.0531180858105,1703.6477007148278,867.045095212667,-593.9120573715807,-982.5044191767665,159.8452648295694,1528.2580212502094,1561.3722312482923,243.14897990237037,-880.2886452576752,-491.45952018138837,965.2928131834927,1781.7776393503802,948.8587452234185,-672.8434735207491,-1322.9589377284008,-340.5076486917706,1097.2425077199578,1332.8292494604761,117.94881678012936,-1124.9391817707215,-949.4663150081992,459.0519465925674,1509.9839996266737,1040.175316453436,-355.7573556214996,-1019.3719802135191,-145.75831088772043,1276.855809394084,1588.3601303207427,363.6536396371887,-1075.9850077353008,-1143.2496735968305,219.61109505100518,1473.4972741798792,1224.072847493151,-205.30300138143483,-1154.1664152905905,-519.9958141082292,991.8428829027345,1682.2216810934578,801.4809189285469,-598.0309952865056,-873.5833680602326,316.03131421454844,1603.8462987280168,1468.1403517942852,-21.020129972213606,-1260.7828829743553,-922.8901200987448,549.1994478912907,1462.6077590894822,814.8435632709188,-574.3777873068384,-1031.1164153429506,31.038370490576234,1436.136722087368,1607.8627003781357,386.87331524293376,-794.8159324991411,-576.5950843809807,755.0450249690003,1595.6983594009412,878.1577691518296,-679.8861802195614,-1371.5786000403236,-435.3936497628699,1078.6610310510616,1498.8538369268751,422.11901919928556,-845.0468460942582,-791.0240120496499,569.7741601434598,1711.7696361435983,1340.435868894472,-125.00741767634297,-1021.0134548223006,-331.8529344769851,1148.0958114013513,1710.6840276775158,677.3743783318539,-820.4835238058696,-1120.689054699859,79.03859996407552,1373.3538021536683,1250.608768514694,-176.10332366799398,-1287.0448581142057,-797.1844928831977,777.6377043490705,1705.3305130327617,1004.3294132590091,-456.67174118384696,-976.4092007089946,23.4726854870391,1351.9258950782728,1440.8444452400433,159.91183545737044,-1036.8022308146512,-790.8705023012242,598.632010714245,1529.5840859257703,949.6070997799692,-435.1497664001486,-986.2441955509638,-33.528654461102214,1346.7467670327992,1572.7900101780028,383.36252223101445,-856.983193351098,-725.7074572390269,619.332061686101,1612.9394443814042,1071.0008088636655,-450.02956533609824,-1275.2447318672812,-507.036856299252,962.7598507570685,1474.4984903854408,492.25337299235946,-790.1023542033028,-823.7557672200471,503.2759861505743,1711.045531144307,1407.802387993979,-101.016759703642,-1127.9984639319894,-513.2576762819103,1040.2126152976145,1747.2136286130726,768.5094904701858,-826.4043906312357,-1273.8692595943608,-125.40913687448032,1252.8737504373153,1265.0910503838197,-73.26919212628107,-1162.920834940343,-681.5883558298644,877.9661048435776,1771.0027087589185,1008.5618642522526,-511.1317300253697,-1042.924002741968,5.958793474924971,1415.091905186076,1564.3576793840498,282.79821488901524,-972.5258360382347,-785.1904254121921,615.4171053961687,1621.1620666936853,1065.0963713155381,-462.5815852385475,-1278.3134165347103,-498.9569943320505,966.1028480514234,1449.768286931937,428.6135588026893,-872.8151102378761,-889.2302733356723,459.32691894490006,1640.5892418023516,1272.3045936942244,-244.67765281249063,-1142.5977691716625,-314.1250337684733,1383.508690175584,2074.485591339571,988.3691767563294,-673.4617411651853,-1109.721440003576,55.61010098134778,1394.7002946000255,1334.1649063888362,-61.710436112682586,-1188.7246888695358,-734.9415994388349,835.4541944226692,1804.9315454871592,1126.3620247011656,-419.8360779555924,-1129.8548776507935,-310.2189997347353,958.3865273951836,1100.0041574614552,-104.34347692100097,-1240.9397904549683,-909.7269929533671,604.7248887321449,1603.6096108345441,916.7184741281364,-717.0409519774578,-1454.5447123189424,-445.9347589121552,1180.6514996251383,1594.42202590929,353.03666332878163,-1076.8985704541676,-965.0363198381644,743.4736710520808,2385.4225572090877,2447.420176610266,1194.5159477505863,231.11822603216646,569.3464827846194,1475.839547912088,1414.9626203501211,-53.76233589645558,-1663.1646217533817,-1833.2571917898076,-460.42356831365464,955.8299026604386,981.4395836701416,-195.71179433758826,-1061.2612856665464,-536.9835991272669,807.0330882778827,1436.1801329906818,619.7496440096203,-727.7997853504013,-1076.7987307627425,-16.488747737430913,1268.7664493094303,1335.010048948131,129.96115433593843,-924.7455307550996,-551.0241392279709,892.6590243862103,1777.778671420266,1061.3426988003432,-485.1725946121624,-1120.983548304962,-122.52892065684802,1371.887037025805,1653.8282182236665,398.7891672298373,-968.7716344143954,-917.6320537435141,439.52979567477325,1499.0482233805496,1028.2469498209325,-419.2892193917621,-1155.6289125135982,-310.9163972480733,1164.2601689690448,1591.6346198913955,491.74721075499946,-866.2219542852625,-918.5929767310294,402.32498139960836,1591.0703042666812,1292.25235407088,-147.3655927001405,-1071.3912432114553,-402.49757566225037,1125.3818782003525,1792.6912113488322,839.189750283151,-676.4641629818144,-1073.4903645479885,53.55469230345149,1383.024472885458,1372.6552908142191,19.759934095373854,-1126.5994188725374,-728.9963540404816,799.251835822783,1747.1919606559525,1055.574166720696,-463.4210942436008,-1050.4509907189263,-20.77890839605907,1445.1198333343377,1664.9119055431986,402.71660748889485,-854.0246843866905,-616.4106376728629,872.5835083821561,1897.8303879775603,1232.5947901543032,-448.3970591090622,-1322.1724762250526,-477.39063162280536,1064.9883800389941,1524.6404280562042,384.7416424388323,-1038.4134444803205,-1117.9916809852832,217.87720961626732,1414.4443210684976,1089.96444790853,-366.67991474095584,-1242.6170508795467,-478.90394707869757,1100.6555508020413,1726.777165170317,707.8118015071813,-786.9093935945904,-1073.5285123602719,126.13747395920294,1387.9564997043763,1234.115955514008,-171.3816425351182,-1213.257964898737,-673.1499218028096,875.3999188754995,1712.4808144726533,924.3923274757069,-556.5131518163396,-1013.18376107141,92.79718161142446,1493.4485799511035,1552.7923498654673,143.54673246312254,-1184.7550576915546,-954.9330420279938,558.697818978251,1640.5818063068723,1083.3398632014587,-447.58446589436926,-1186.0429549001753,-282.7539510860479,1236.4986149735635,1654.1914111413896,522.4896213877106,-836.8188560833828,-856.1413170388591,477.2240819045026,1603.9481554734368,1183.0833239400658,-355.8436952746573,-1284.4543414194347,-546.0904605840178,1027.6045631070683,1658.9353290790834,655.219473322469,-801.7007311755068,-1016.4158221428105,274.9612421367136,1611.3435621713636,1491.0872764866444,85.83353219368244,-980.5077659306778,-512.3425787153798,891.209164292195,1545.4375023440043,634.8665132096882,-836.6528704671255,-1191.538789764085,-8.9747463861709,1374.970821347065,1386.5478326567747,26.972045800911964,-1107.8953629777614,-652.048407783088,939.8968298799047,1880.4834256115407,1087.5299774708706,-559.1422848922113,-1203.5040846912843,-127.16636097734978,1433.2840324331994,1703.8669863570647,393.5086423192431,-996.6279548361691,-906.3968226335047,513.4120559237931,1608.1538775869162,1129.3792966116052,-354.5572319968237,-1137.8353740690347,-338.67663404782866,1100.1799478737264,1494.227303507657,339.60012079794495,-1104.3540456086598,-1228.763718189534,111.40073129510259,1433.507311760221,1304.616718982626,-34.44388760023521,-948.5629993185446,-288.276960182895,1271.0955847624407,1979.8144867203202,1014.0121591141678,-569.3526881007259,-1034.5767411983568,50.2772973715384,1338.0356683795899,1279.211199825043,-82.31487905420889,-1172.698400557489,-722.6374553237182,761.1706401386631,1582.2763101198173,808.0593308014968,-660.908271329738,-1123.0746806173074,-20.51569430589148,1419.3974386867226,1568.9608937530556,241.10962181369732,-1093.5726619167679,-959.7686401191958,463.2233081952749,1552.3568789372137,1090.2100467431344,-343.69610409104763,-1036.5349036158664,-123.65250750778053,1379.8807003984903,1713.4039674400515,404.0841492423999,-1139.5293431376333,-1195.5593538758044,310.981556317983,1710.2224944590084,1482.1940766482865,-25.89035989785895,-1032.0555831666954,-389.8222014872705,1103.9688205655104,1663.461573155943,600.2357524634001,-883.1977635403259,-1095.141490658826,188.26573469305777,1468.470969876889,1248.772134433119,-252.2826050703228,-1352.475381222584,-822.4897471747033,717.7873112552206,1504.0573684518615,630.0363250465973,-922.8293068447441,-1399.0098591652547,-267.4169206883982,1171.0909410456277,1278.0804684753164,-14.638700764096127,-1074.1096108862978,-398.6483950299366,1647.9639978489233,3173.4697073641446,2793.851598978599,1079.1252419061495,-182.81079058390588,-4.861038809490145,809.122861096451,766.0372427788466,-474.6386077757111,-1671.6484450988496,-1458.9341335500092,22.31631500177446,1218.2198542102842,894.2090601913666,-469.1359525216078,-1221.3403475510072,-425.99669420618307,1059.3984140782975,1555.7683113954863,494.83444425893373,-902.184407690592,-1002.6367062383154,361.25735943900105,1675.6198698681235,1459.2439527035565,-43.738994144606394,-1137.8617475703518,-610.3364007861439,890.7006602380443,1612.940007656271,718.8570898553384,-752.2237047375249,-1080.3506175621,155.4965940914216,1583.4523641421865,1595.379797428243,175.72806611967897,-1081.1812750881147,-779.2223829776552,707.3285263317622,1677.9404652385042,1045.5343744745403,-441.72733025242815,-1076.5806262002195,-152.18181910602405,1235.8420811394317,1457.1125026887703,231.2566969039741,-1033.3132674414053,-851.1634679516052,610.6729410901215,1681.9497869429197,1085.4532136456373,-570.0342652350639,-1433.9271500016619,-501.7377404868515,1227.8256524396672,1871.8425984142289,797.7448130541281,-674.0561692844122,-811.3262839491241,525.2259220195193,1733.269174473647,1342.9271844805737,-265.55826513107644,-1291.0849859815335,-584.6986195403575,1032.0132231868795,1715.166737633499,709.7492367281131,-800.3574614848606,-1060.2288517583643,252.23618053921717,1671.8874341839344,1624.403808596734,209.17014486622577,-935.2088266400475,-507.37827320680736,984.2241050783174,1815.1568651844025,1009.2415879688407,-564.0334563011022,-1189.5774276605036,-250.55844514279855,1091.017727257578,1235.5427099773765,-23.11189037585601,-1254.4398305227871,-1013.1090060762041,507.78142206277283,1668.1874031985444,1214.6827715018621,-309.9711514665912,-1181.6064566337325,-443.4058777332367,1025.7112831049421,1539.332720154782,542.5548082059092,-771.8799144696552,-872.0639107597952,326.0194620388698,1372.4698343776918,990.4032555796902,-419.9262557305016,-1231.4802172884686,-470.2233801708245,1053.2385571486907,1663.815026501597,732.0114634287925,-616.197880575568,-797.6938826399924,406.5120227169584,1586.9055780668436,1309.7189699933174,-224.82305730798737,-1364.543985913307,-850.4902678811866,749.5400845449373,1659.3950913365036,892.5732979012636,-629.4984477412559,-1127.7615880318408,-5.471708880095392,1456.485123297474,1565.8037453981624,176.87454902191604,-1119.9496342241705,-816.9015829190505,770.0867915499908,1852.0252130862573,1215.5424701372906,-389.4440653221484,-1121.2617686961667,-165.9913966283442,1339.7090245698512,1631.9824029396596,346.7886441545731,-1081.190369062014,-1080.786942972116,265.4380106112164,1350.5768316006015,912.6902808292695,-518.3877860349852,-1243.917540724393,-354.68214001150284,1221.4151228156081,1771.5264546921765,742.5132110128998,-637.8259669454112,-767.259642916751,501.06847247084465,1693.3090914075947,1405.0044618770876,-85.49376489407715,-1131.4921934899692,-602.2922774466896,829.1554123693176,1476.9501306633947,593.0277948975229,-778.935372159316,-1026.8663623863836,154.80177918015428,1407.315980892134,1271.3018457922449,-133.8121420246774,-1235.668859734095,-786.1516195554989,732.7275056792918,1654.5510383538476,996.7470835371282,-451.2408041637634,-1031.2188072372,-87.79942743108131,1297.111662760881,1537.7740362912964,359.1811999765534,-871.7430280870324,-703.7898399075692,708.9803776587006,1740.9318862035918,1147.018689615499,-474.9098496940023,-1326.602621671962,-460.1865187581355,1121.395988192996,1609.5575382552834,472.6483830890253,-940.9048980533461,-982.4914496502113,377.8401304584854,1529.997434380665,1111.9505839492115,-405.5635966992501,-1275.0998588308169,-499.14822897528467,1034.6725935142679,1602.5394778543598,632.3241192575041,-667.166186707748,-730.4356635434036,552.3067046772169,1711.8364112206166,1386.6674609906827,-116.21332842300949,-1157.0801034692017,-605.2419778666939,898.0174241600857,1671.0786889145363,880.1187781677606,-545.6943485951688,-987.8535537668724,28.998979088903585,1316.9535315781438,1389.03994216818,149.4861815167658,-1003.2279465245589,-768.7221577734724,574.7065308409361,1478.0458016044322,874.5124446477774,-601.545035694848,-1318.0980914489535,-492.65529117845256,908.1761303388627,1261.2638251175285,149.97234772959413,-1140.4067521126199,-1097.689226979662,251.12213768891317,1345.2106951039625,899.4230606365111,-569.459939349275,-1292.339976149015,-257.65569947664284,1638.1914031237068,2611.299258823177,1971.3948277163574,783.1865487288957,514.1220845298208,1301.8842468163582,1845.764046848842,999.0800148082218,-805.5463936176018,-1940.8718356443244,-1356.5282017259046,244.06737445446035,1143.4881421388138,466.3493149883936,-892.9749513057241,-1302.5044862724042,-238.76738915027323,1127.7012903309426,1280.021708626861,107.17636564127355,-958.8477287704948,-601.1487350116367,837.4023486660072,1729.217506863311,1043.5271127777087,-445.07851432881733,-1035.9329317964578,-62.967553774969495,1330.1518864285758,1501.903396002978,207.2425257470089,-1101.3017964064375,-917.3782611322282,600.1665330481258,1789.8238414184384,1352.2316045979035,-192.8916347196539,-1106.6570463642067,-405.64961904056065,1031.7397230136323,1485.1606392935098,373.82543636141696,-1068.1144570199904,-1201.7537039588851,134.28013052019477,1434.97041167087,1257.9100725254386,-118.64687354627563,-1024.7798679970244,-339.781727261615,1198.7203045438262,1837.1325744421224,830.5290504702396,-692.7237671812087,-1029.9444312379437,133.22154488271673,1365.8936858508632,1155.4952908219832,-326.6765417102868,-1395.8291767511523,-772.6353212647878,942.8883385384037,1927.2575128209182,1175.4524248885016,-384.9544351499426,-958.2880875462522,93.82625730453323,1555.1336400992764,1754.4981427844164,460.2563538087391,-874.942783545614,-779.0790601568344,569.0170337834594,1562.8756194675075,1020.4605226032548,-457.3269265465714,-1177.1964798534975,-300.1377806138655,1191.204054349361,1616.0078898279949,517.3910298462396,-824.9434566129926,-871.7144412191657,417.39145285222804,1559.3510069013066,1261.9122092725606,-110.57971441430756,-990.3616885878804,-425.59554959408973,839.1500091073599,1247.0641802620462,241.66022461416384,-1075.5154054347424,-1190.293433382289,97.03870266141766,1426.8467721963325,1399.482112185112,143.73980623156626,-840.991232333546,-396.61992807777733,965.231281324151,1637.0905954279967,757.11004251567,-775.9058393108108,-1292.7466615859514,-244.61015624672814,1162.4072493100189,1332.5186378526769,98.04121703637202,-1093.2621447595334,-843.6996624864005,585.9356390076641,1577.1069015313503,1020.632719507378,-399.46338373406195,-988.0760269597314,6.324592497140201,1509.7285066944055,1832.1372462537884,591.2448811553368,-846.6556820864698,-912.737780922661,393.72828551047934,1524.948498827796,1164.2894956638982,-269.48097763189,-1109.7338779879387,-362.1676931379396,1137.8755560335546,1659.8329721098983,549.0987999589762,-1008.7540972504424,-1311.0118139090216,-55.09396893236098,1327.8143680826759,1305.537040185878,-16.43461254353621,-1038.45333743162,-526.0313120191769,959.5383264459841,1716.7805293310169,888.5923258866218,-534.1907082127781,-868.1727410621277,288.8878442667104,1572.4471042568414,1431.2547368857472,-59.0708266150959,-1256.9557322069438,-823.9724795377265,750.6655340304787,1712.275328898333,1028.737482059215,-469.6448718380655,-1072.7360160493538,-143.9452307443747,1184.3657710394186,1339.3422111086563,120.01040219342218,-1076.6186304276637,-861.2237870048488,554.8094798845939,1600.7232434634095,1140.8670518219378,-235.43846227951153,-902.6452174047741,-68.72221968282383,1320.5271324363955,1671.5242132289013,568.857406284623,-751.83348129004,-814.2796711101636,419.48509460457865,1508.0729841511436,1167.780878728968,-267.1975256673132,-1211.6930893753579,-614.6907199590469,846.7000158398228,1520.2271473488136,645.589988049562,-771.9250101651854,-1090.8735606150403,94.59303643277488,1474.6611228505794,1507.0851915738112,181.00829922416398,-970.3463737625192,-636.4429430711889,760.4603976018573,1564.2140302108087,816.6073058561176,-623.7610968249094,-1078.9987729160798,-6.937883123253957,1359.8439334650761,1436.8684456959754,127.08986754890384,-1052.1815537881826,-707.3390536604802,824.7100532326017,1845.7499795999554,1218.5624089752082,-353.95695378872,-1141.2745555159984,-343.3400273937312,1041.4358049724626,1400.1686495393515,354.4193911690799,-841.5693859943966,-775.6000194797057,493.47701414412666,1514.9346154687169,1118.9101735242186,-244.3849142398502,-1022.7364824032785,-335.1907024786716,1022.6486979320904,1484.3043237175943,501.8872226777163,-814.3556097157149,-945.9656100077324,297.8222882240554,1534.684984775504,1362.2732673580454,-32.74071895152387,-1053.225129755801,-492.88922285174186,1071.261109580842,1902.5080162732127,1066.5605902761836,-498.6172284055232,-1045.1183422834206,-8.472639318069817,1355.7222973029395,1429.7692915021912,105.6105534474524,-1094.62633746074,-788.6679530061934,656.710066406072,1542.1281629573336,797.8684148750577,-772.0766305924252,-1397.481756121962,-360.8428493794161,1181.4018652000623,1509.4785095854122,285.5708377142318,-1078.519560450094,-1041.4857706307478,311.3320721249085,1378.1931501673769,889.0624511404417,-623.1343167165099,-1413.0161569904656,-497.6541340668207,1247.720809202366,2116.0867891111325,1508.1992381770278,535.3707757228128,612.1141129192341,1716.603743155896,2378.238321313547,1423.3252195191283,-557.3483580277566,-1754.7427482507114,-1118.6972023976648,474.254725676696,1195.085245708527,284.23289865271573,-1149.6061062449255,-1426.6430777565824,-195.92961640789122,1204.901475595778,1297.2341298834901,126.3794132870394,-839.477691375976,-421.2089840480549,924.7615774834713,1648.4063113793736,891.5166458578518,-526.1325141764963,-1030.6250165478893,-71.08807020667307,1257.0214214989637,1440.6363485939364,248.24689667614712,-1008.2509053926275,-947.5849627931071,325.0851374316888,1342.7971136891726,956.3677182523338,-338.0248283663972,-962.3494365784827,-92.36671434111923,1351.5924429202655,1739.3779341959807,622.6064657469102,-719.7745999205399,-746.5640384114671,555.2448948085356,1641.5975104674287,1190.3035025979789,-367.78497857562706,-1330.6177738645774,-657.1955037862429,866.3355577250487,1538.8867372615887,668.9839022900557,-676.7831552963415,-921.8329885648922,218.02629321035218,1422.7570715546183,1288.544386204881,-51.49517317984079,-1054.6468549732942,-518.9003939525445,1020.0348112268975,1851.9589174081727,1013.5215924968525,-600.9953661965908,-1223.6132523690148,-198.71971195256913,1286.4471695821117,1567.7510928702902,401.71572253467804,-788.7586915727604,-594.3736283962646,736.9132933147305,1607.882207891843,962.6578435836041,-460.40473968362176,-982.7021888990754,53.11076466292569,1503.8976921360365,1733.0456527159827,484.20634618302665,-836.3871071780106,-773.2263589030338,534.7236471859352,1544.6578305821079,1083.4057004598997,-331.0270963811903,-1103.7527030053654,-388.20822314903097,956.789555864398,1354.8321138959566,315.87190395117216,-995.4588217843931,-1080.8468859713034,176.7599988840497,1364.6680123854255,1145.9006342256555,-206.90234460085313,-1114.227204504822,-497.097071829105,979.3221446826208,1657.4086617719486,775.9815347492215,-665.4428173162756,-1049.1688685454324,24.031776652981176,1295.9153497810573,1297.153485391308,26.388022210391235,-1045.5584694668055,-653.0691312132847,805.9726260778991,1697.7499814550024,1005.0527637146514,-493.3857743581295,-1086.3137536146246,-84.74727109264136,1367.6960466758849,1590.8800389037772,305.39507789933975,-1029.2102025440493,-887.3592095123281,564.5314398811851,1662.559426461244,1165.5627629313728,-324.1540979127624,-1071.565483430192,-212.17255403995472,1262.4878265834102,1650.6586678180188,487.494537558044,-927.8854280588514,-1012.1907044358193,303.30855757527615,1494.560596339419,1178.1460595546891,-304.3729204682194,-1256.268928090482,-548.830334573381,1080.6459853883443,1848.2094196354915,943.4808006931777,-555.6158678383292,-928.3823191979742,211.1046907462142,1482.4433223719032,1348.9492619338118,-94.32285609534371,-1221.577802632063,-749.0406151104567,780.3909529410219,1611.3632208330403,788.3732255423458,-738.0316193839732,-1183.1440106494795,34.57240097046777,1610.986821850886,1816.3320664063917,447.03756355294684,-950.9284760570246,-843.9458826384202,554.2025533794097,1558.149962601937,972.1767948278309,-528.6387163349159,-1188.5450151751536,-210.08525865723203,1320.2448308451887,1682.7706914334667,497.0387608208872,-855.9612384115626,-829.0409365243131,525.0503525816573,1630.0521370965537,1192.1815659762287,-333.6372594542616,-1266.9864236343174,-597.948126446795,890.0998932406732,1517.834303066497,599.5713576464096,-798.0988779021143,-1067.8928621609668,125.92760684954358,1471.729639613287,1492.8950018266096,216.8073078713251,-861.2742773225995,-489.6923201818881,894.6618703384441,1651.8956944593958,826.4690792138161,-719.7791420116381,-1257.097672877725,-165.12311497181287,1329.2099927859836,1529.9989915222104,210.4321351922775,-1116.4161932725538,-921.268944632698,595.5193964034796,1742.6991431245613,1280.371809335015,-180.0419496452868,-923.9366218409664,-137.81122433863078,1167.9985243904832,1375.317237733234,173.6195279842417,-1063.5882072308257,-872.6995169523929,592.6924160497985,1716.068015275882,1252.1407938470977,-262.86947337249586,-1125.5614511833999,-391.05084647846155,1077.0037473891898,1605.2282447706814,609.8370900214467,-755.4453717490386,-926.3805011117319,284.1387351321505,1473.8451835859778,1261.135068647572,-118.24065505721558,-1065.1367505333405,-449.79892804953624,1073.4234885164733,1795.4398362832806,907.0708159246883,-566.8603075749103,-941.0823725777558,190.58769077884662,1484.327291271413,1392.0837680860047,-51.98296423956773,-1259.2468250892111,-897.3171691503389,593.2383369024025,1509.9082637422007,833.4193960551146,-622.8774473724376,-1166.6537153518461,-177.80890122481284,1184.0867339268405,1322.4397140525364,48.558981713087434,-1193.4906814253989,-983.9983640640493,432.8729069070803,1412.9449275637107,791.5047768348879,-758.3467412807403,-1440.1959916661415,-324.11984418574605,1625.2668110413713,2622.2259795686955,2000.5596134701964,834.2924419755607,583.9938432810508,1368.6368929787764,1865.755144042253,944.0316459841664,-884.8584031701179,-1920.6109526656883,-1165.9235099282832,501.6513137092306,1255.6225723431403,334.6295447052169,-1131.5770975842524,-1428.0051847608563,-205.31168795683433,1150.8792031904732,1141.4554455964244,-115.35113154246713,-1042.5515089126202,-456.1924993230197,1047.3779803184134,1778.2572995525254,910.2655075313489,-562.6091984185952,-970.5097596948389,118.26423827453645,1416.727291170099,1408.661987167529,87.87638452201585,-1036.8129088550593,-663.565935187798,815.7683328582208,1745.9479169777587,1070.3339733242854,-468.8341595855413,-1145.2892533743807,-178.04283458098746,1381.3052300421853,1808.8221860131184,629.9325306501734,-853.9648073684469,-1034.474354927488,195.67597674680565,1348.3496709751673,1065.2154364008506,-317.51441310168826,-1165.2236827296956,-444.11098427465043,1070.774432821527,1675.0621992547533,687.8988839059883,-770.0188938773765,-1060.6816823272238,108.04923605045823,1373.412547522988,1298.1854179650065,13.701477615386558,-953.9738439912043,-458.1666868384982,942.959284997892,1634.2856642341858,817.0180484737351,-554.3492131058728,-862.3125727807615,299.84662304450444,1631.4925366240523,1596.6980987428067,189.9478814239108,-1034.3692964885659,-718.0149227689194,759.8025579619683,1717.8593602796655,1088.6650231361782,-372.3134039607739,-959.8640633285329,27.191269981045938,1479.8355410121117,1734.2401466887684,457.2565256893729,-978.0432077508572,-1046.0959574493072,216.1968878250838,1276.7923527955234,873.4639377210965,-537.5942165070867,-1304.0916265592173,-479.32311592236465,1071.5428910602109,1641.2759168174355,633.8160275251914,-738.4275202812723,-835.765719221112,513.342755800257,1784.1389433740057,1482.6529091147802,-136.85749592126834,-1340.3171163074448,-873.9757520815525,626.2940521009588,1390.2097252103697,555.1922669134173,-859.6389536598992,-1158.25888106178,58.61555300352002,1437.0783950462842,1444.6380677088368,138.12104434060208,-919.5089574536886,-480.75386781382525,944.1069130168768,1683.7489460015856,838.256756850471,-682.7062748117672,-1197.6537398019354,-163.6570605435631,1223.5623946087958,1405.8732891187433,230.63738003422347,-898.821984059352,-644.7523451677057,727.4106609519948,1647.162566828054,1036.7948529299726,-435.4249890727508,-1086.8015506170148,-129.3974755966233,1405.7313216745838,1801.810318101151,588.6007066322866,-915.6784492506597,-1084.334928689036,185.57962801370795,1374.1599538854227,1087.8374226182166,-343.15609256394134,-1248.5624698535669,-541.360491970274,1027.6247204346435,1723.2635666274007,808.056596635334,-618.9509581886289,-884.9021204994532,340.0630236798241,1664.194833026962,1564.099179642989,124.58014866170647,-1058.2922564267337,-697.2083439982924,724.2602001063133,1516.3876842227094,724.9983933745683,-773.6563734221039,-1277.4132117374716,-209.58950318750047,1220.4949612847158,1406.4953322526615,190.83425150247973,-954.0841215605416,-625.0010638727891,879.0343870181238,1873.0131902651485,1206.4569925096837,-406.4266651572584,-1182.1796760067175,-293.9036340195162,1188.5258570452581,1527.2026723698011,310.10564192306964,-1077.9681465576227,-1048.172649829815,369.8239012401948,1571.4157695982121,1226.9974798888636,-202.09835220704178,-1022.5585951266752,-277.5310496160353,1159.050971386311,1612.812452908976,551.3250081727654,-808.3288906678488,-909.2395829579448,358.3929948504362,1539.3874369876382,1277.7195157145266,-147.36861371574614,-1145.7730010388295,-611.1875698895997,845.4249607476548,1596.5584595235432,830.221513223473,-544.1938062180483,-929.9239372807651,141.62701076513625,1460.4672864138747,1497.8180969316647,161.5564570530914,-1058.8862930365208,-770.8706867091252,708.0430308394205,1675.4434849879106,983.7189243691031,-622.0780805095225,-1335.865604188028,-357.7267750187357,1191.0328647555966,1569.0260569684224,419.8779310115361,-844.7428209429526,-711.7124805138305,670.1569427994756,1673.470345176308,1091.5355927731005,-455.72702642733117,-1228.190005455752,-360.4697361455285,1149.7847007219343,1586.3526306269434,472.4729623744544,-896.6590128337317,-944.7141372090279,385.55902250471627,1577.8108905968518,1283.4065594227075,-139.30901561619314,-1042.04849907189,-374.42757804056,1114.6600236252948,1728.7378109562849,756.8977726142627,-710.8065320550196,-1016.5731162720818,178.48477553634865,1500.5022792741927,1422.6774959624609,12.157639463796173,-1135.7642377996312,-717.5789488603949,782.1609029884512,1643.7666707283731,887.8806347493844,-601.0767423344438,-1099.7813735241887,-33.40531691679801,1366.701435473773,1482.5726406851827,163.6068162775277,-1106.8482822228293,-905.7826816370982,515.3780927681996,1523.4220407024466,957.5885569565509,-556.7523859627553,-1316.9478085461005,-472.57773265948987,1007.5741532642952,1433.4900409643924,316.12206798557384,-1079.8246813893113,-1190.8132603802842,58.984588320202946,1211.9987803493202,1024.9579260780722,-41.33157363020788,-355.00490572758247,929.6189323343415,2767.6379119046846,3281.243707501723,1808.686053297688,-353.0193331619833,-1326.1915909000375,-604.9490085094908,549.213673030095,625.3884895993655,-449.80411457508177,-1319.0168581228731,-824.7513744170267,617.1179813891202,1468.3338668728502,831.3274168164698,-499.86713293574473,-935.7991603509183,66.82277237474912,1349.0253302239776,1376.6274309192468,40.391306353961866,-1173.1341380560266,-874.5892660932091,616.5060713853405,1617.0609074299803,997.4938666455976,-534.2835421405264,-1249.812630134848,-364.9797313900532,1097.0420545801403,1503.0730436596623,470.4578585903187,-729.5676814042012,-657.0710063267741,636.5234120680051,1664.5697814158261,1207.6992697210305,-277.0684886942503,-1151.308964789165,-446.86707832613746,1025.8985567606046,1589.0787609533475,608.3878808911087,-776.5450358548351,-956.2509420988478,291.09094879125854,1529.3491761163518,1310.7687342287334,-149.79269667884404,-1211.1617492800217,-689.2166054306795,785.5393239076997,1503.6373699014523,651.7577560343915,-753.966656037084,-1045.882485635608,170.41774570871243,1555.7345162309593,1561.356836689344,191.04519060715043,-1002.7396057583511,-675.2319266035546,797.0378146893426,1753.3130073419134,1132.3337459912568,-332.7033182185285,-958.0961984184022,-31.02655688360907,1377.1371347590687,1634.5226536143373,416.9176293333838,-915.67278929948,-871.4358498909204,466.7093443444337,1541.0215180005437,1115.514446680934,-295.7794868404639,-1018.1501864387868,-153.17018050824706,1364.4205928607237,1816.3428232814272,665.3547900892177,-817.4016101540547,-993.1729414383162,274.8023146776484,1465.5809840931138,1146.8713968867182,-373.7738852229957,-1393.139302074892,-764.0328244428233,789.3241673312734,1508.8584467363094,624.4298492308683,-777.2579032292582,-1032.8853109300665,163.79369471898727,1416.0399543739647,1252.6918167807935,-165.09334026322443,-1225.4349922439135,-712.0993324591653,809.6758423184173,1642.368388603783,884.8542847934089,-554.7378412889987,-1000.6171462183788,83.03401955614163,1477.9099274128935,1586.6779167858308,245.53776088688238,-1079.487875551986,-944.0355555285729,445.35884824749235,1481.8573593179167,1004.8184596770243,-376.8651101091054,-1007.7038950245874,-115.75887767406084,1287.2139859331326,1576.7054459673823,396.6847885410755,-924.9430270580431,-898.0824521658853,429.7021787870586,1539.842844476393,1182.3699115912664,-205.98646562543752,-1011.1522703519236,-286.4595205060676,1163.8992377850643,1689.2274177099036,662.9246066967058,-797.8444430880603,-1088.0213574501322,67.0445008517408,1299.8990608945114,1167.1113134387992,-185.95069024158482,-1179.3618004610576,-615.7175554359428,922.97621976785,1721.9335389793657,897.7252462338686,-579.1221122329621,-990.9633261055255,154.13114744918818,1549.696914166559,1580.8268384685748,174.19062986907525,-1108.6681669444483,-845.5679895529845,626.4582370280743,1595.5280161414678,929.7652408582495,-627.5355052998433,-1305.9928196393578,-330.9110895109037,1200.6942508039688,1595.5650826901876,511.22543266789773,-680.7227495782096,-523.949341580647,812.087042024758,1734.5059972161268,1092.9692377042857,-472.7233718523327,-1260.4298286993105,-449.3725065008321,981.5260776530421,1388.3396789731685,325.6032659062653,-976.0704972353052,-1023.3002701073925,259.2537891069986,1464.8625637917385,1300.6648229089135,35.07835591621864,-824.1009644951771,-249.28531240843128,1131.2421508452578,1736.0003084344055,827.8155243307974,-631.5827582633465,-1058.461484210178,-46.11677793544183,1170.7256206655568,1135.6742658123023,-142.57907226556682,-1183.1938547320376,-732.9319716328841,774.3511912346835,1686.8714306887516,1008.9243824352548,-465.12899019014026,-1058.6695247339458,-123.16342854644549,1236.0831095475387,1444.53493360793,274.30031174543586,-893.9540126683042,-664.3708332859869,753.9863735814992,1765.7689199866945,1208.8453813361186,-304.70460683121297,-1071.705133163749,-238.11681153229057,1220.0449403436714,1605.8309876231822,439.12837941136513,-994.6406187584735,-1114.1888090509508,156.56314549990225,1322.0381768883422,1051.4792847843023,-287.0068252746065,-1061.386883850678,-274.6638247430998,1262.1646125987504,1836.9161887825344,787.8219672077871,-732.7655702884882,-1056.3220769041327,121.01705060739698,1412.331677627342,1329.16264172056,-30.752944062559585,-1112.8912001649744,-688.2157462201061,753.6865213664826,1581.0499446599588,887.761582267874,-491.4316997432749,-966.8818401840497,-29.29123816723105,1180.469306902897,1212.7230127549326,5.151475995002429,-1027.8441028894908,-623.5162988531685,851.127530663598,1777.4986890683474,1106.686895994358,-444.8502968074302,-1192.687483900587,-377.2872381935277,996.8206599332074,1330.680978760556,274.0053561879661,-871.3588685066611,-661.9614820913122,790.1240113204319,1900.6110931044543,1413.43116697103,-138.14014862885244,-1010.8003086220988,-234.81473245449868,1272.2899595530773,1755.1966260494507,632.4713534013157,-847.0841206518367,-1051.2886452024727,168.5211101476968,1338.6940181341206,1082.2352932596198,-306.35991124562867,-1224.7021302030332,-610.3321853584241,853.637373188865,1525.7201813202555,664.2992150491583,-748.0640283397311,-1127.6765390765402,-82.84316453407219,1145.7613489430985,1100.988291703766,-211.92999271620246,-1301.8548350330425,-886.1018391594739,613.6976198511393,1514.150130019232,786.6942477124529,-742.3054697800399,-1306.7932844245704,-190.16866848134347,1499.5514768990872,2136.1492854043877,1413.229864040976,585.4282598097282,886.1278768191843,2011.9957770427573,2446.54267231251,1241.904127015343,-796.7438045124203,-1893.6628220197701,-1199.7539929937618,299.4129234337138,875.6898233154607,-51.25268152955637,-1314.0414988930506,-1348.9447651779467,18.477686131643328,1366.898133200517,1289.5909336528691,-9.9524762302123,-963.8019596782796,-444.7774544719113,949.6590281593423,1611.6431290151072,794.9409923507648,-531.0862544929898,-824.8950638302498,229.6011551425108,1360.341676282782,1192.4008539653457,-143.40638311917024,-1138.5746680319864,-629.0963690677713,861.5028319562495,1699.6033049541052,987.1033979207539,-427.3844822680142,-925.728765485109,29.776851575103482,1289.196070072825,1345.900784100539,79.45391670647872,-1091.6448308144493,-827.0134058269847,600.8185874053427,1613.0738018097747,1121.2757662236313,-243.28949798541797,-870.9015055721193,-30.648991406047767,1287.6333302809974,1513.4376751848383,311.5262310714274,-1013.0502313576262,-995.8595112909859,312.3750636548646,1404.3993422019928,1049.6613420075828,-290.6888150383052,-1004.8608384802858,-209.76156899742674,1205.5837741834803,1590.7561243589134,442.2729465629294,-991.7533460667796,-1114.2985723553186,214.00814061247647,1525.1758612083613,1409.7236904308486,94.12261691895613,-849.7194162513476,-307.2677545028617,1119.7983932607203,1813.7316817119486,989.1829640147033,-411.20754462039196,-790.0156670666697,277.4893666317835,1539.949374536327,1481.9919249026566,65.0876657232761,-1191.2720057597833,-911.0108289120546,572.4954742839319,1579.2561651770607,979.9753057174054,-529.720565635098,-1233.7891859258546,-354.43745280564855,1080.1525160814426,1440.579227687957,370.1672771337088,-829.3452642899214,-726.9625195536994,571.5193664223963,1542.275851687082,1005.3746426160095,-501.24431809030006,-1319.1741580354897,-557.8133328726205,891.2823595099508,1380.8630022028558,400.536200456482,-839.5227242062891,-810.0739243260558,558.6412001402044,1771.123367680281,1465.290430035823,-28.048049171783372,-1053.192656604537,-506.4903234860946,920.1336470676404,1542.330251427732,609.6396168392656,-841.4177005561944,-1172.0374182930614,-6.8444078463114035,1344.615097075763,1384.8663141557447,131.67126993659448,-916.7268297216092,-510.505330277893,911.4016617443078,1722.1827425006054,975.377979583204,-504.48925159828656,-1062.3528431384657,-105.20245601672156,1224.5184589673188,1364.4840927750458,125.34712622434114,-1092.913856820644,-903.5257378738769,484.63588298610756,1513.4151879577303,1061.3826343322228,-279.4657557294443,-896.3679853268947,-19.14830834137031,1385.5252461893638,1716.33398209198,572.178731362174,-785.5240220556248,-873.0595577678276,326.0549181711565,1357.9877119710063,978.0844730917704,-419.2044099872324,-1256.0609023331392,-580.027114061871,851.571558485156,1446.4986909637532,599.5384621989887,-626.2409559522619,-733.4753052535814,475.52680145684866,1650.5440519021492,1424.425095169961,-13.5501111831604,-1101.0980130549362,-655.6464986785276,783.9847548136165,1562.5123237808416,790.4435725647684,-636.5813853455575,-1059.7486927227362,33.609005745802556,1405.7011350584417,1481.9475640872793,169.44326458409898,-1019.5944882885337,-696.8934741430184,803.5110145535335,1797.6455859117427,1166.7738985088156,-381.75945713755533,-1139.2689657027158,-339.89024556878195,1003.7205839440477,1303.179343932355,230.4578660029467,-917.5347773315491,-728.1189610923537,681.0951090891311,1764.2261580274092,1289.392096623718,-253.97852360325717,-1186.2797773954114,-517.4103940169833,949.9613327130212,1546.654938471944,640.4001447977009,-655.9153589301395,-783.9471768235144,443.44364275001817,1605.5269939121658,1305.1303295681662,-202.36000630960172,-1268.158385015875,-718.2395398200263,806.8801759173634,1580.9821603232008,756.7304686019218,-684.1561226675394,-1075.5155809392838,19.487801036065473,1323.8932758229805,1335.0403803052925,60.01230626057887,-1000.5084441327937,-594.5022799703428,825.7096047084804,1615.6919813463971,836.3174858567761,-643.235567722208,-1115.0444878180651,18.137277113008786,1537.1272751726576,1762.6202451374957,446.12006201741065,-948.0793026278702,-893.5362724746602,483.7489881862307,1569.0798095717175,1110.4133335712934,-352.42798197418887,-1111.1398636709125,-255.44746505364134,1266.3526927626485,1717.03284086587,559.0296255037857,-915.1672835136461,-1047.0138484072993,295.5175628676714,1567.664663858487,1318.4209220991409,-149.90013781183984,-1140.6549969649286,-522.3579908860461,972.102201501817,1597.8709504113172,609.5311518743622,-885.1955729507843,-1197.8030575412574,16.383150645181804,1381.8662192707209,1384.816214904834,92.65405264251447,-942.9918568936539,-473.5173684608718,1010.4607001587709,1825.7509413991195,1005.3559606482597,-595.6734063795584,-1254.186231880853,-314.2149395257476,1091.3742347673658,1348.8388003868333,203.49317211971638,-970.9938107947908,-771.9813991038615,612.1822102082327,1626.91411623892,1154.3999076170492,-192.51921005736446,-783.55627160339,128.97991383481124,1519.6954070210188,1752.3353747252966,472.379948344007,-952.8614964960066,-977.0183115155472,357.26744318495173,1465.1686559902187,1040.0050347687857,-450.45094581974,-1318.3819766525216,-604.0626387382031,846.9890214699603,1394.5078631019826,480.50063715370385,-796.715188813165,-997.1867523502548,33.64698763108,1045.378401007355,803.6284455127627,-566.9426403758276,-1706.2564861134522,-1385.7748648665554,288.66225505563114,