1.1032841307212493e-14,269.82901689658365,388.5469406993566,346.425149618094,256.47119660038965,215.16022340771195,216.88666873342905,203.52647061884932,155.77898671185542,107.14798999310905,87.05825753337135,85.30582604347856,76.7630745255803,56.940309392478405,39.71381110672466,32.63871592055799,29.538805315755337,23.82652304472177,16.91440239388632,11.866951231197362,6.8576980183363565,-1.2684778566517092,-10.881674419558617,-16.20701819559524,-12.718116977274567,-0.945192047828348,13.247411751196863,21.60263350719749,19.265916797891336,9.39439829029693,0.5507147361524988,-1.7416250257921722,0.5723434725325793,2.9295603015501905,4.812380763612235,8.835806448097099,14.797036873990272,18.56183350226457,17.532729029339503,14.246588097440226,12.996898636541948,14.911354952289853,18.073471301503176,20.77244708291927,22.263268183857246,21.330522471188438,17.151653732795516,12.109336007064373,11.088016543732522,16.133169420844105,23.166652789087163,26.06186683065554,23.56920731098303,20.19680670867557,19.85757650491861,20.59768537672853,17.241092173046695,8.458189599920592,-0.7888424071133509,-4.40051954458455,-1.393804361582507,4.133859580994591,8.469717635619746,11.849413309544204,16.145557775884715,20.87521015361404,23.555943308239318,23.68535823360572,24.032135220570783,26.753123630050357,29.803489729502466,29.373239729976866,25.50737020916489,22.811732149477695,24.552567153714218,28.079643312645832,28.248165114340104,24.293880969356387,20.307094384546545,18.445217823025136,15.027753341987962,6.243937991886306,-4.007418991172142,-6.3782599420198345,2.5044277210352126,14.318836343752828,18.195961225151382,14.232773460517855,13.535196134388425,23.47185124289887,36.54968802071677,37.79303525150916,22.277144907887468,1.437559939992105,-9.219353307704665,-5.740455672240633,3.0981524866382073,7.804051554447248,7.279567655079699,5.7978556090201305,5.043290799232409,2.314743601425818,-4.767503096963332,-15.010898819898893,-25.44783656881324,-33.81115328008181,-37.87370383047829,-34.23324998528842,-20.16190048567,3.6766082558172766,34.4721131416352,71.4578296646346,116.0927891655129,165.34139361432327,205.46764168232798,216.4219484112233,186.30470489183782,122.87251948508981,49.85476213792155,-9.525139949640035,-46.61380230483578,-66.86304144776906,-78.17089442958088,-81.98232915337792,-75.65155262952207,-60.403950301096025,-43.349614940065194,-30.77608577123584,-21.73692507652282,-10.696942319134335,3.8648448179802606,16.065443879509047,19.244865346266394,14.548742780886007,10.551604453180563,13.993309699226224,22.673014105969735,28.727910861003824,27.757577185075274,22.73912905986354,19.08360480202654,18.28643341416448,18.162689441783016,17.873068907827538,19.60534459968306,24.362540467076442,28.583024733255066,27.729651888936143,22.749893476939924,19.88939925564839,22.575948006687906,25.71990599451238,21.206846064896588,8.91111226888784,-1.0226085915336345,1.0494184278050367,12.886008739424573,22.505474560335788,21.606775180548837,14.175702507885822,10.442928902090511,14.365900169071978,19.769802777291893,18.609332076646204,10.420303973151597,2.2727148583936843,0.8564436091360162,6.438035049266816,14.17265404095404,19.4260556037475,21.112407092219257,21.173681996553782,22.2849548082847,25.88444592117082,31.133854065381033,35.20674643242116,35.37296392822514,31.797955463713127,28.169062772899238,28.47494828463485,32.548170898906406,35.53752692845393,32.97620463961883,26.286211583122963,21.798246324604584,23.482994439128955,27.904026164773068,28.168936553239405,22.46766920694348,16.25489954686425,14.951631609824387,16.767481356581587,15.443270005089797,9.28483738505223,4.03790865228858,5.522005823518378,12.063085324400328,16.862468146588345,16.56699887802476,14.215738171191646,13.415980215306991,12.941529293437892,9.409207308048872,3.426494348014943,-0.25463629238415547,0.9722840211068643,3.7557062412608007,2.9542781141501515,-1.580631654938463,-4.336666096400212,-0.37549660909997684,9.050400722800132,17.724179201272765,20.66581316203945,18.49923216824884,15.986131573426707,16.96584881944213,20.932395359635734,24.113413592713037,23.379260698844565,19.052876240388795,14.317505775970242,12.295693494131848,13.672047296660043,16.68156186516166,18.918444305236342,19.07272480828245,17.30341463138531,14.558912943674295,12.006220352498106,10.956387050186033,12.42488710084039,15.83475525926484,18.354733221019103,16.908747384079735,11.904214202129836,8.351951761974297,11.698506523438583,21.932886135097046,32.70526554791759,37.10097493601043,33.86333243631719,27.30453088922362,21.869189670934027,18.35452356066186,15.592490535588102,13.932913660748845,15.270548137382345,19.922123274581896,25.000636692672366,26.48164116585134,22.2868752728425,13.221805989939094,1.9919388572719925,-7.838519989320224,-12.781105952257189,-11.105694523611135,-4.285586277944351,4.025488352273004,11.205938846049323,17.532817058211418,24.322236078010082,30.727023971372617,33.57303247432859,30.818779390683886,24.48186462624599,19.374400352874748,18.931975992042307,22.486310676956805,26.25397545553764,26.43059014226883,21.63627522059626,13.58967635994305,6.285144817876727,3.9752410941929965,8.431312797914954,17.04032162705236,23.742646535928294,23.101060546114326,14.86662836317387,5.042203802861722,1.6114232123894263,7.808510669665021,18.9609014214143,26.48486458042864,25.626228767785978,19.168447605807362,13.435277504799418,11.59273757500412,11.972693835946643,12.257833031820793,12.998007066743465,15.934538849768806,20.543140059880887,24.27117078939804,25.6247061668099,24.945546366199746,22.182124618910795,16.434618162115704,8.894210959086697,3.914923879354078,4.611359161776725,8.451736358324291,10.169694946206029,9.008357246365957,9.748087979847421,15.117874197133755,20.388548363616177,18.956383114285597,11.834721918154532,7.248166136596665,10.044224399945112,15.58832199203493,17.02546063247164,15.758701497673114,19.953576418519575,32.51326199442503,44.98811978205255,46.20665677834269,34.85272940680143,20.498679440890943,13.008151670909823,13.958436045585213,18.60714357117135,22.612139946434773,24.201939345641854,21.853412340288116,14.08988714422262,2.8957359997118837,-5.1292264146444575,-3.6202597698031127,7.362772268249807,20.93870006662674,29.233300247610526,29.172797364874103,23.15191274190655,15.536021602862306,9.268140219195454,5.1691450347629955,3.2790199959365904,3.9934428275410316,7.436597582658793,11.806410427151524,13.353552569547771,9.38197141008663,1.5309747763654014,-5.088280578644853,-6.917853144198271,-5.556775665168028,-5.645473370365703,-9.906684617667294,-17.356140941203627,-25.47072252662273,-31.743730171883904,-32.63582876516474,-23.46024816764205,-1.4377314833858887,31.92934986479236,72.90161099232434,118.38794438622413,163.84019626965951,198.67660470056944,208.28830662850373,184.33507886572286,132.68074394882134,69.39305560845305,9.587959859261742,-38.360673342003786,-70.0022652288204,-81.9964115128567,-75.20308653931055,-57.93501817275432,-41.755313370527276,-32.92491313700439,-29.418038682706364,-26.224874913527003,-21.317191520066594,-15.597713530319526,-9.414321266130685,-1.8360822800850753,6.848777221583238,14.047292427366287,17.168181548903945,16.19662672329344,13.554069369682338,12.223168537087972,14.415935441168974,20.828920740869837,29.623103324585962,36.338089115159356,36.69366608937851,30.843702264665055,24.294200070365626,23.09857726861547,27.58748871431409,31.66648451914459,29.11957257917544,20.223548784469052,11.217666493449034,7.34479421038671,7.67022164106502,7.460319426314817,4.602362190013577,2.0567044850873555,3.8972526161565955,10.362246457324595,17.592131427922787,21.33271534949762,19.964532934434263,14.754820588143676,8.832201539673223,6.001705192123974,8.758633205031932,16.07915442106262,23.696995550372993,27.692779503729877,27.763861791401165,26.252916782010157,24.346879711022936,20.69877242739811,14.4313347302615,8.36352498526329,7.697366598918928,15.077738242743779,27.437285672547926,38.01068018627933,41.41828643719698,37.17872280291325,29.26129217990111,22.947882646669783,21.754723140059337,26.065531154128756,33.37849306738429,39.45305039821578,40.156789956099665,33.90157826293499,23.345424641414557,14.220955534471448,11.123022050300895,13.694591395756952,17.232971670595177,17.329248394888612,13.541410081238384,8.37293343260164,3.706423892094144,-0.3870577449010292,-3.545823480913981,-3.8045573943508306,0.08977049038923246,5.694168180679368,8.117357910040681,5.192193103767473,0.6159762181215866,0.7339735032527909,7.95111575381489,17.88027720537013,23.37304976003102,21.255379848661526,15.037990174326099,11.292288978209648,13.581461219518301,19.694644693236302,24.36394991954333,24.489279633567495,21.75875035056991,20.173810399623864,21.107026333646736,21.336597386488943,16.65455004382075,7.357730274598277,-0.8813427407346515,-2.4438873031251958,2.43492234505863,8.404375022109093,11.458370166974388,13.137674287435617,17.310262835394536,23.916294915907667,27.997078483499607,25.465506157419327,18.42027341800338,13.435076977859122,14.845034896721554,20.558324356450754,24.41076290660871,22.000107091078085,14.34472886984051,6.745309347406745,4.468288829335529,8.896395860394678,17.058988824995836,24.57309507475412,28.9086216259439,29.802319567041508,27.33721461194491,21.23087503282712,12.76269460540069,6.148083099933685,6.010471852933371,12.885445837220898,22.098106068601265,27.69763351676828,27.188127379102994,22.424423785342636,16.984224302835585,13.49004877061877,12.645025249296319,13.331085679980307,13.422697134948699,11.646977772001618,9.30725434544868,9.537076694099333,14.110947979688948,21.14344424496199,26.36232073937273,26.622480116964486,22.223049102636487,16.423677303569608,13.021715557295243,13.50760280226369,15.522313438366714,14.570424946865531,8.742191736980708,2.0134456453018297,1.4215499625742107,9.904405491077343,22.593227167340395,31.063204074460913,30.724103918807593,23.38475920791031,13.867475104894393,6.232723430346697,2.997088632163356,5.08129000692849,10.738138970780826,16.19839160192498,19.571641439872113,23.188036613958477,29.56309667389417,35.46340389497486,33.616774556694,22.216769597269245,9.981471700867944,8.072068704413498,17.306115963913378,26.678480614626206,25.563151652032655,14.743164538635941,3.6257082462981636,-1.0190172010560012,-0.24988236125594815,2.1199584749817584,5.51019494692405,11.580554746803104,19.839925714540332,27.15815835535751,30.967999799111354,30.615122779608036,25.828339519662602,16.610139112077782,5.633278692796983,-1.6292632840686248,-1.4561634725942993,4.224237316559925,10.385701208622008,14.898321313016075,19.825830581486496,26.592646782654757,32.48850240342184,33.86241512755833,31.356673837853457,29.39514682710572,30.336009121522352,31.27042031543337,27.825382612713607,19.978887393222394,12.529541368224661,9.868061272473575,11.471255695780954,13.148139286849664,12.175907415815317,10.2669439922687,11.004276022359575,14.79588804538795,17.561771049922232,15.262442622675069,9.029041630307034,4.191764942357864,4.000869090592019,6.176948825693397,6.9719522069815625,6.86449182921739,9.329257451782583,14.203192759451957,15.850009194046898,10.0473071038282,0.428172287912679,-5.2653800772212,-5.018510026749945,-5.525334015806714,-14.236658612147277,-30.48438136614064,-45.844908768517755,-51.53501244023379,-43.58312410115692,-22.254877508115953,10.321168085148598,51.1721189638003,97.06510059338954,144.83528189748773,189.32990154635476,220.12961398563888,223.16676341857996,189.88729208608603,126.37793689967641,51.95736931409013,-12.793661836644457,-57.12153281828503,-80.92233048398255,-88.18457787794996,-82.46641704414466,-67.88916950410893,-50.72836418826469,-37.070881435122494,-28.882806583352547,-23.639416429589424,-17.957810876461075,-10.69682854017945,-2.494289474325898,6.143729935032772,14.818470477555897,21.822824936182467,24.643064759612777,22.813048445019632,19.25589526972544,17.45291197969274,17.58457774272379,16.90466107199136,14.230641433367087,12.573287973444003,16.019792871980762,24.569979853198305,33.37496756217407,37.1375883853369,34.34632763640379,27.347615021273214,19.8382930448299,14.999446488070573,14.494091238469135,17.262812077191946,19.455409334596464,17.420395439425732,11.598271469520236,6.397822629104263,5.384060631742134,7.534292421014263,9.437487920141233,10.392342665033205,13.233070162045674,19.52416066971134,25.72970610539267,26.025827707642343,18.74165583141357,8.629525078464349,2.3532266690773342,2.565699976093056,6.752916109733588,10.829095782193736,12.767715187909246,13.142824162552161,13.568411157984041,15.311808376306104,18.837046035559357,23.91940030475051,30.090075696692445,37.023164470707286,44.11739925629219,49.4857504040938,50.12576121621704,44.310996286938945,34.12354353198578,24.765077691458366,20.53851738065726,21.522135101070937,24.38119569425376,25.988171894118963,25.711742396630402,24.610153879051847,23.50985305489628,22.27897103441808,20.301336054960903,17.07735444365536,12.661047355139294,7.908588931711084,3.9514965932587263,0.9837835204128079,-1.9777903745136294,-5.37775087063308,-7.486728918475391,-5.635614297521215,0.6077721525845088,8.445772073660667,14.564456524094052,17.913527057719257,18.945478628147892,17.2105597860952,11.813702981765825,4.579780098145024,0.7124844691640112,4.396138960439254,14.019274535736125,23.16087728211488,26.62664674107933,24.66920502785174,21.059215102317374,18.23985214171095,15.675104132697323,12.684223710763712,11.165256263097643,13.932225040159102,20.316898005111963,24.915647674499215,22.350148051089832,13.490321131246159,5.626131599546985,5.312234744655876,11.558467461325709,17.40006631429814,18.080403528315223,15.96591357836729,16.519972243393966,20.96137904784191,24.925718684456882,24.153317213294823,19.489169268682,15.409006274326066,14.920909003394893,17.173033879290124,19.388911120428833,19.701087589620382,18.034894201279066,15.462868036985617,13.415839057728592,13.05950113500217,14.791447254374528,18.157141019429496,22.09520515596766,25.04538193253019,25.237153842695562,21.885644479577923,16.450997022003595,11.860055509238112,9.716525293861395,8.796915637158019,7.183477194047068,5.462059848001534,6.433728672571438,11.331820421422982,17.607899260344972,21.53029942806016,22.344908348334535,22.62285877877391,24.57603400992459,27.279068306572878,28.015984982821692,25.381509880564575,20.175261099097142,13.91139091770533,7.770576168523629,3.0568939400932345,1.2996154268219953,2.9270093169248286,6.3877096912944955,9.525302021850374,11.658433092085284,13.524260915276384,15.425060219850437,16.726206174297477,17.538675872255936,19.38787556720626,22.82881529035015,25.367075596917438,23.97472879294082,19.898292076762853,18.548771200714892,22.84887437784262,28.21820948427092,26.963234241047854,17.792456056071263,8.386449610052225,7.050961185706522,13.436501550195283,19.4757217712789,18.72512607532167,12.66868525595431,7.837462488458689,8.80696585834802,14.685898193874001,20.591230330852348,21.319978064095555,15.264183591838892,6.785643144276478,3.7612834359848546,10.176465616886484,21.02628758863948,26.97366731864564,24.732268975745512,20.248303782531664,20.023643279659723,22.128517687073252,19.48813677450694,10.837190493742357,3.4100008828741224,3.090789423092464,6.183062571608744,5.081151126647116,-0.018142984035714307,-0.45456833861883245,8.972923242895579,22.147872755443178,29.054514734803927,28.324618650553028,27.80717050712065,32.90870734335553,38.990965906616964,37.76452690018927,28.433338923047504,18.921289237083315,16.572286558098202,20.692685810387154,24.942652194057988,24.587850720742356,19.83811356281592,13.838411534042232,9.722536662187139,9.086640476788157,11.002645588769076,12.064800966678204,9.357615319201063,4.509642206943799,3.294938342250733,9.368071938320522,18.95255451063413,23.742403980107046,19.557834134533568,10.73444266509662,5.184334999931506,6.232472575665078,10.3552642043813,11.930815633613978,8.376089607361793,0.7303048465492114,-8.584047081270821,-17.077834463791554,-22.492201855222085,-24.10618678949233,-24.297417944565456,-27.108050550334966,-33.526778855455866,-38.22729028843326,-32.125846554126085,-8.763647092521353,31.82661475626273,84.57159515810008,142.24448078752602,195.35411485220027,230.90199418769268,235.56314965241498,203.57107941317236,142.01965513180113,67.46863966115436,-2.973395651885261,-57.70760754929946,-90.85951525023181,-101.13777057090448,-92.69547244416219,-74.82487951627003,-57.00940248300163,-43.055294872844286,-31.128209438099066,-19.381555485053518,-9.401426443697051,-3.2383001333791173,0.6607637086094705,5.974070054996096,13.509113498771786,20.082436164242303,22.788571990433244,22.364218207272682,21.364841639265606,20.8652144267633,20.713190097831152,21.666779904160133,24.548183524971247,27.244880995830325,25.36441278281277,17.546054039563455,8.55417769079169,5.017366500128356,8.625993823748535,15.374281935798894,21.150019829771626,25.522966844568245,29.145471697901662,30.102065032366244,25.84760592020694,18.18856007335277,13.121303450133047,14.199111745533703,17.84164890955305,17.333886071097467,10.969646505840023,4.238711290817622,3.493694114174477,8.902408872574687,14.615257959651831,15.10777027335313,10.413966207343698,5.598431683936894,6.083235833521389,13.229437266163151,23.214980998760765,29.763273460644445,28.908910709494418,22.1672545250885,15.24323194143226,13.421358763120686,18.037045678566383,26.730044742390387,35.738484154461396,41.382309585705706,40.90371838429258,34.25922129625174,25.54111262749405,20.740755621620725,22.437466069614995,27.11643653652276,28.929864332951936,25.93050980087064,21.464422994708208,19.509959084521448,20.26862349362471,21.2469988167921,21.362283503284154,21.978650426009413,23.663132659143606,23.60653285572365,17.86262925362436,6.2806281584085575,-5.651986074024175,-10.710846408999318,-6.156076738954991,3.705370103924791,11.231633804514576,12.080007938635413,8.553795418212248,6.632917467416547,9.871200566837281,16.20429440030595,20.32279468151866,18.644870135983254,12.12149464042181,5.069966524740075,1.7857169154332544,3.6522002485479,8.546735283049001,12.923125647317272,15.016099186020893,16.110114605091212,18.31924919264918,21.462843652832785,23.198955662517466,22.40705880494652,20.993632869079626,21.16103185726483,21.86394810981071,19.927956173279615,14.8002257059791,10.276284488199686,10.393745489235956,14.792045923365698,19.462477532856397,21.24130645470115,19.920682756798783,16.48096616947992,11.689307115813502,7.322051826145078,6.699313318225745,11.819557056285152,20.330407081530794,26.915788480742645,27.813977234924977,23.190799866181287,15.851216714459895,9.54827398639841,8.321913486825471,14.381717040703077,24.559111839173195,30.83317673977006,27.690718567378912,18.922467708046252,14.038672819717487,16.722133387744798,19.57877946520945,13.175797344527549,-0.9060736948907964,-9.615165647029508,-2.2112945716838763,17.641377486242238,35.381759370735594,40.06045411027795,33.410573068999376,24.976487851925015,20.961924603425164,19.58499077239249,16.157289471383073,10.054816720091583,5.398025565252079,5.781674749984012,9.931437137761865,13.159196241655641,12.54915161649817,9.972384612789615,9.83363963148667,14.199038813337463,20.50470616269676,24.138066127222167,23.083046143481948,19.701557872871167,17.740362995888287,17.88318569874631,17.081655985825304,12.827743651568795,7.400657479109849,6.309247206195499,11.80956837064272,19.15322836807449,21.01104287332651,15.694645129649073,9.35900843445179,9.079682400522888,14.865033740638946,20.056499188352223,19.193528827289715,13.607491096737975,8.75908928265667,7.870617619312435,9.774777132966063,12.0269532867683,13.806848364273014,15.262524367426138,15.888498178181813,15.163316947282885,14.19723710111246,15.274794677552194,19.554199818004484,26.007003671117637,32.630453948490704,37.76171572143797,40.03931706442716,38.376806309255834,33.0878118931976,26.46112944954683,20.94355236841705,16.68499770515712,11.932025039426003,6.186646783928915,1.9396959562883094,2.332611192905896,7.472451551711273,13.929217971890775,17.893058852555377,18.273987114217935,16.831059314968726,16.10923377132144,17.50354828870235,20.496687861184657,23.015000414354805,22.850454448033204,19.49090673541624,14.596174841165066,10.22340926540426,6.708631022419084,2.937167190971196,-1.3746901238710048,-4.773885550778049,-6.133090526390165,-6.781120685543463,-9.243426273585055,-13.914880886168627,-18.438368783398513,-21.16747115837112,-24.002874826727737,-29.89672324735589,-37.36699268740761,-39.208741420143994,-27.961230167656733,-1.961625160082789,35.21899754905455,80.31846101653672,132.130780015773,185.71976346820827,226.89755052929496,237.07780978558176,206.84295654504783,144.723199999196,71.38070993864129,5.076664422212844,-46.941095461706944,-84.81425294749323,-108.0877360715333,-113.95788333301644,-102.21221848841368,-78.73072911325346,-52.54202307389281,-30.19441828895575,-13.684335087469501,-2.6324307295301006,3.5352263777407384,5.96353743998005,7.3314440700165155,10.721957817099206,17.16072945185071,24.844083915467618,31.0755137152773,34.58575419218491,35.67749967175769,34.61874655142371,30.892148468071763,24.511869873248337,17.558185365946464,13.402659809399498,13.841140826488115,17.212915388575535,19.934646998933392,20.1715596362496,19.72892396369653,21.837312309762137,26.927066108302483,31.031449931449224,29.011876634720455,19.566364498507507,6.747470650052244,-3.5485112574396758,-8.025249637715618,-6.680068736913425,-0.38142919022503163,10.036551110127961,21.681171521281186,28.876427195208503,27.422549008232174,19.883987711210064,14.379962927563378,16.545710839331743,23.693204751453713,28.418686554514537,27.187291596893488,23.216724065437692,20.826645466698174,19.625519745064857,16.275123702393,10.590233838867748,6.988147620306536,9.280154614284388,16.02533759636764,22.43395640739708,25.768586741943647,27.226268857819065,28.897272651909926,30.7698076949791,31.52613737017323,31.15433476955889,31.46050621255629,33.9594316430634,37.833803063971054,40.06834859061129,37.52505633798854,29.45844683933439,18.742640245063424,10.410152523555567,7.907847224018216,10.185525869261275,12.8541493992977,12.589398166142326,10.030673343686765,8.023790064271154,7.6697531100388225,7.09474567815063,4.085610998828183,-0.9740025724540831,-5.089078326578007,-4.870354324790393,1.4027821542603343,12.564277522114349,23.969949594192116,28.84788045481999,22.87080475232342,9.140959432910314,-2.353008917330573,-2.5824756818350334,8.161227931310464,20.458797029830084,24.93663023758595,20.62762195565262,13.657937882914204,8.987304224537183,5.897490249489443,2.1454042297983973,-0.18581321354987795,3.815884664822268,14.652798002780495,25.818009844801352,30.490788102889756,29.233226801483866,28.24885023679806,30.214164670384903,30.05948091875866,21.76219565382928,7.380487270513747,-3.6425555017136513,-4.13339984458679,4.242759891460341,14.60892580910954,22.512095147874827,27.917861802988373,31.278195257419895,31.050380833150864,26.086150358142067,18.412152008237694,11.927412080865205,9.022147514408955,9.5904268575354,12.584867012422494,16.887467916252152,20.70355338747738,21.861350451338655,19.763876004999506,16.378688997581666,14.508907201428867,15.389281306420397,18.31050354852029,21.79142349795415,24.214563999114855,23.95738275458396,20.445954899744365,15.38986676623917,11.787291913986081,11.006457171841205,11.591351609463397,11.542907410592878,10.876151015838499,10.895384669887681,11.727980852039494,12.25407365965861,12.409024135569817,13.658403699506279,16.416042380233062,18.742665656476383,19.19936224691023,19.618204151091707,22.447059135644146,25.64168444049743,23.52699059472167,14.500977050386899,5.347135926167907,4.5017019610439775,11.62532308023835,17.46966047423037,15.223357462621683,8.76146623365475,6.807172855115671,10.953643246698235,13.860371046482287,10.017063477883838,4.398685378083008,7.30186045580885,21.94076683292356,40.15557850858471,50.53577033547064,48.60856335194994,38.658868939585155,27.990274974089775,21.15805012598158,18.393533123547904,17.194849036903385,15.106107076167707,12.263386116139642,11.54797882727285,15.183710354705152,20.865495141022908,22.512056339171338,15.989809880920939,3.794906201857697,-6.695947233618788,-9.581706551568223,-4.79640498200661,3.1945469623642366,9.902465878982508,13.794844417498355,15.724218898843988,16.542837240650094,15.905720253695803,13.379046746772984,9.913694832153903,7.034689533515292,4.287655922176452,-1.2413082958372912,-11.54200446628639,-24.333082111288213,-34.64281988977183,-39.6640462838275,-40.11071391808509,-36.0218381305487,-23.3838159406858,2.8013494826604806,42.83557540102765,91.65629105808819,142.77763165393182,189.3555884242825,220.79021419907724,223.21695003045514,188.97101781886866,126.04761368589936,54.69932907055235,-7.144984016865387,-53.8373549503991,-87.63280438014988,-108.45854401138793,-112.00490943965502,-97.17803172049425,-71.3530592134077,-46.09871238596066,-28.89521755563893,-19.90060848626696,-14.910785690701205,-9.308194851838955,-0.053491545017592027,13.102307591081944,26.87574078364255,36.20407488722162,38.42565217480265,35.84496835844327,33.506945025423256,34.40047760070132,37.11390391991403,37.81703289207727,33.927417283123795,26.104542059315484,17.602046731463005,11.947619853976711,10.491526434094538,11.547220332196938,12.138357761748724,10.999109489551579,9.658264180500058,10.271662144197972,12.906963021320426,15.838113712705328,18.296873418975608,21.459689434687963,25.7831549874607,28.43283997480302,25.376738764511753,16.600497631199232,7.710676078492546,4.7103720608847,7.457787090325798,9.951517542259738,7.7609156457198845,3.845132768038916,5.34301290242428,14.672618276281204,25.453252028549088,28.43005432263948,21.029106348473153,10.070343014044997,4.980640055133993,9.110343482311588,17.991856532703427,25.182301611161165,28.527982102000955,30.435206219582216,33.120329093266335,35.177586730349724,33.53567906341531,28.066749686158513,22.816480255255737,21.980499564011893,25.390958338834487,29.052331150873353,29.902101364099142,28.6110770139075,27.162324591616656,25.31096180847568,21.448200226830856,16.56444214665775,14.749396912433077,18.218266757119455,23.28568244925767,23.60879244972065,17.52830515811352,10.294587732133058,8.082749128006132,11.049807944793647,13.634554763574975,11.128208966282543,4.528699179866281,-1.1079670084590636,-1.8317045524469424,2.1609801472383663,7.5814970046141825,11.136690187922646,11.8572220890363,11.18461634598798,11.018260860430871,11.62795318429101,11.715361773542899,10.55968080405721,9.379338142485555,9.921077725368114,12.19704324352574,14.561879451433077,15.80789911940797,16.027157407893995,15.33036570293892,13.266200942663623,10.496908938507227,9.792898138611832,13.478775377148287,19.973943916302908,24.563908928463277,24.277859247277203,20.911976467535677,18.49678922989549,18.747900136275245,20.022779289862513,19.973800339211458,17.803988540950783,14.189665943979882,10.623091965461942,9.234410510655616,11.676939817425541,16.928342443197586,21.04936399688001,20.700864290002674,16.942836042622584,14.317318470007288,15.746206900941052,19.30918878524333,20.825714692779147,18.9789225249943,16.764948083961485,17.780107941699143,21.99935508274954,25.910491286723534,26.494148768028857,24.213713260295922,21.703261277727442,20.11039792305361,17.783352146967573,12.903665192542155,6.512448960499157,1.7870384673318673,0.43815206747407476,1.1220853415786005,2.043266711903095,3.9381107828537196,8.907936918088566,16.531803379835978,22.97703263921906,24.983328339808537,23.713026842445416,23.2596261492398,25.569721579048142,28.15974766089734,27.2276166412154,22.037547602293202,15.549236972420415,11.346146830496721,10.720342558469302,12.321066057799476,13.57108565940096,12.344429839390378,8.359207735473225,3.7035146289240504,1.563015082855291,3.7292341083008207,9.455187688857993,17.082979024540702,26.140563634731365,36.59072230959887,45.963997586189556,48.97495732331222,41.800888613847775,26.851864586572148,12.139109756614229,5.207718216781795,7.750857846749639,15.710114338807841,23.225410920920908,25.873972281692406,21.824403672146076,12.59275130237146,3.335898489647731,0.1979120341364195,4.996313454376678,12.643359687300975,15.656214283232881,11.954431479626797,6.96033260278057,6.901046719104266,11.013404183974464,12.279054650126357,6.03148006017175,-4.136632998544545,-10.460616996510254,-9.848420936351634,-6.57268840993436,-6.303096057680527,-9.990832434429947,-15.024651017483533,-20.125284479827346,-25.651155163467884,-29.106243196748935,-24.059821007582126,-5.982891231953772,22.750377643697615,56.528344617325736,93.86599734369109,136.66786581663538,180.61790944599014,210.2025789722813,207.99182726188775,169.4406171542687,106.6757677661843,38.29349410492978,-21.810678839850038,-66.15767995467857,-90.28259820887344,-93.20039550993187,-80.7047951775755,-63.53364750543054,-49.70342390947493,-39.747941894933334,-30.11704496022707,-19.033761485247076,-7.232378400998973,5.014437188164055,17.983780752154306,29.235909477220044,33.30488594044503,26.899704815516095,13.574078889355057,1.5944372599968952,-2.697218127467612,1.3556107292051456,10.521033459288375,21.043374653972734,29.86749804679046,34.72094373207669,35.119299939840865,33.13796321764636,31.726362438713757,31.727536507099494,31.17632142715727,27.735519203242262,21.12270585065995,12.918966504431873,5.103722490944013,-0.16929381522287987,-0.24131382642353205,6.257021812909727,16.115864042139783,21.596419928427895,16.486948245008804,3.2065286713921233,-7.45354417205539,-5.573000383563105,8.37685191847964,23.860918262574298,30.370028124275482,26.65278988004966,19.813204129845694,16.569894287224976,17.17790230486158,18.100619111536766,18.45739500411085,21.210919972432368,27.690585698977525,33.43904497932018,32.18536276016773,23.91131604611576,16.370768231685396,16.703135267862965,22.846009477167712,26.085631672919664,22.402779041389124,18.093077239765783,21.501326732404156,31.002526617243575,35.53761352650498,28.3085312366608,16.381241025260636,13.219325132751225,22.967391923138734,35.97172722702888,40.421193905579315,34.83216723977649,26.75140411645527,21.849012004607033,18.376477420928968,12.189212282531987,3.312232255642685,-4.439549292244647,-8.071035617368054,-7.193009928233886,-2.457684154050449,4.930792018776046,12.034199482921656,15.144439286799559,13.443246234015506,10.446807057985911,10.30681582178686,13.1695698701637,15.387151379377423,14.019615132090541,9.906609383649796,6.2459061635272075,5.3254454955653685,7.117883520290464,10.097902208630346,12.518885728282484,13.318756833582047,12.796096177635622,12.635116584858185,14.672029201919273,19.09436429102111,23.759638474906325,25.48312733003173,22.46644197042871,16.103662670435696,10.571436865778,9.901700279357579,14.533751028562321,20.75713274267126,24.307609750640673,24.690398945033017,25.14303679301901,27.842411384089576,30.134954246357662,27.055291562576436,17.741560431517158,7.81881262758936,4.065611216467387,7.207837225767413,11.558220143036236,12.128492510282127,10.437489098460077,11.662821770934416,16.884393221706368,20.87465532558464,18.887551629856084,13.651829669959623,12.663298290115497,18.415096519211083,24.286276461537835,22.318720599158393,13.613042192900991,7.926688383284959,12.371645578765216,22.952861333774706,29.20463578918742,26.032132174419008,18.609191147882267,15.366674924796891,18.225323004170964,21.263813529378677,18.27742349902884,10.014046676287075,3.4167458455246646,4.320069759727797,11.407716636014626,17.40876973345347,16.291528851850117,9.382900289209246,4.1312315799234405,6.376138581277346,13.979497736471338,18.881835580443042,15.827590534054684,8.357325618898797,5.308659031220434,11.633115242755105,23.6642523806195,33.55593862658245,37.09931647592366,36.164287873050746,34.41600713368545,32.73510437806183,29.585883826029658,24.405502839458553,18.894536758113293,15.020904111552264,12.98312745447726,11.514119478789887,9.391354653527431,6.316031695921097,3.1639701996461858,1.9411760089503098,4.556777235409806,10.47745607072958,16.15115271105497,18.410817523522265,18.647584116636853,21.722142213133136,29.344081286884077,35.85885650757581,33.193848509510225,20.532745223110876,6.934184655247137,2.3456320790706897,6.596902403507508,9.353112501241336,1.5850680403940252,-14.438056993528406,-27.841190706173695,-30.85082018504463,-25.95362983593644,-21.431821092074365,-22.11703064265456,-26.277244821984805,-30.088694218926307,-31.659489776543676,-29.15483161896612,-17.25161743584798,11.108743032149771,58.22823337981891,117.61721048284126,176.3728317769448,220.41080963941548,237.9600437795434,221.9245954680457,173.436655947138,104.13970131839127,32.16497789939812,-27.264792349131362,-68.38596221815928,-92.72515425896842,-102.34266757020019,-97.26000279779105,-79.1971821814549,-55.08729443485764,-34.439884899112116,-22.79571492942089,-18.28634039532596,-14.555839090702046,-6.7596237234755225,4.692504536917191,15.10689657490963,19.868968512918848,18.710477387630146,16.32777742441747,18.338911042960635,25.861695976900457,34.07488552074384,36.66833357072917,31.899280430983485,24.032986666936505,18.85720020787398,18.207774666932487,19.050491480893502,17.477201089437457,13.066590022496422,9.236101498834394,9.508636041704214,13.618144854521361,17.585562271038963,18.005904661671803,16.057376071612033,16.232029498230894,20.370670453306406,23.907633327240074,20.020098363329115,8.175780090060684,-3.069885577214052,-3.7347212412229274,7.183241082497635,20.400253345730505,25.813399919145184,22.01876389157448,15.783876279241351,13.669552354939636,16.207113204468566,19.927183503375588,22.447016134565867,23.900919042523537,24.71036012668892,24.39111017229637,23.05912040979459,22.504556846521496,24.478392277146263,28.29254228685553,30.9880125495896,29.87498158664848,24.589838825850084,17.21663661367911,11.342291039326755,10.65342949066263,16.66283219487117,26.600140901919058,34.4372279780644,35.759593239778084,31.950251117489568,28.3975711712822,28.14121798483379,28.596487688898094,25.61105362564036,19.51730664351112,14.9736985705691,14.788455124502677,16.243811075590067,14.869029718100071,10.13455574405356,5.239308627200055,2.1626049869250306,-0.16042802567034106,-2.2399007933973074,-1.61160189841959,3.6513684599267004,10.624468392739418,13.762219686738558,11.429225437398113,7.5993905195875024,6.381277490804116,7.4719474397464305,8.759631580823681,10.995559156185914,16.37526178178077,23.00725213783685,24.77823995077512,18.671029880879924,9.80281234920781,6.385305241093614,10.505022808265373,16.52592307650786,18.59197895918754,16.925754441379127,15.496282875633325,15.875232436951128,16.098850483160092,14.852625383638584,13.837081903646315,15.020665210266925,17.552576331539495,19.13798531308955,19.475186778430295,20.293468329259728,21.984172150911746,22.232478356451818,19.24953629332042,15.290733745336256,15.15692920929306,20.835071423845132,28.59602385959443,32.058776994698896,27.900004056837332,18.451438364605437,9.336295216997113,5.042837310125891,6.1486796475480165,9.685226058391436,11.921805164505948,11.520842133952934,10.437824153830842,11.349486091416649,14.024886107750577,15.123139468223572,12.4571235977087,8.726068436606072,9.236121796504504,15.438275990210897,22.3508263937629,23.912019274241075,20.117004757977462,16.911491846139228,18.84168262123066,23.755469900118484,25.935189495435086,22.997876318474447,17.757266860696145,13.916821242670231,12.41127749005245,12.65726794518726,15.05204079438389,19.998753668302808,25.28079705079905,26.848988535587413,22.92549189513519,16.052976434718417,10.530866770957346,8.963427151142083,11.764275175266349,18.089993184424646,25.13508044126249,27.44320572671531,20.25544064913538,5.40100669278593,-7.639377965307256,-9.139837415022846,1.5527610856221954,14.936644810341487,20.284293491085137,15.630676194123849,8.939311373050735,9.79515185153388,20.10673552652308,32.62553593349884,38.21555978485658,34.43992637876996,26.92547143972865,22.46591767182684,21.71829660816813,19.771343675784173,13.47588495027003,6.029489582135305,2.8357416295033064,4.279869283969867,5.455842461572976,3.4390362532394687,1.8509927948087799,5.68991915319984,13.177868025604738,16.572644958949144,12.126318291213991,6.077333785065376,7.72407134189693,17.82540955887011,27.573112383621776,29.796041460420692,27.664555600545295,29.35555409247518,35.993519933216206,39.26144061967531,32.08706673933336,18.39795387894974,9.361145664152874,11.183442634875673,19.601075236827434,26.43620842375276,28.51688649669441,28.36280614219945,28.097762111152825,25.83639431994236,18.72824164033521,7.907736595329462,-0.8723011551187472,-1.613776106420528,6.673650099672546,18.31368390118319,24.698620875221494,21.155729655055207,11.103968030763491,2.73336116640077,0.6910708651369674,1.6840862991491596,-0.6009674165124522,-6.948160058132127,-11.090237823602305,-7.356588427386672,1.988172703002821,8.702237596786114,6.900049797416637,-2.578410525799324,-15.692800049513945,-29.959969704962557,-43.57312154721615,-51.453317898570894,-45.780538783096986,-21.996942422657487,17.11120260234364,64.58053888912981,115.14618853961477,165.51153597318904,208.70280969472546,231.33338411480216,220.1954873357125,173.10109266361908,102.78684717773245,29.636678705436513,-29.658889521605953,-67.83693576159332,-85.19392372091244,-85.50694911045757,-74.29005422845,-58.4400177384516,-44.428682577248935,-35.42946555253108,-30.405748575169838,-26.281846931930176,-20.78889907917209,-13.325813995376834,-4.161468370866704,5.876436937866613,14.7830027652609,19.762567605333576,19.692669206466075,17.34096430740515,17.90740078688586,24.176941730073455,33.15412031611371,38.370726608752946,35.93515629613826,27.910408934747657,19.58863117691256,14.29967962641759,11.7516844205569,10.765796700365998,11.684064164054965,15.068725965819972,19.222288813744942,20.947654664576774,19.18022513056183,16.596000865378397,16.61297448634206,19.300567228088624,21.285151357120995,19.727813207191847,15.53194003764701,12.225728742146282,12.244445672826682,14.832481172336246,17.168034539576592,16.739999957181002,12.7346732828199,6.307607100293158,0.454620106107913,-0.9698483570422436,4.232220104450134,14.132291676420321,23.451116373516673,28.047022171210227,28.64782999619003,29.07618545198629,30.69115755591527,30.32211430453845,25.13444147405288,18.242533275970075,16.606106013848667,22.597847733274335,30.158855891734294,31.62162308719743,27.114415780721213,24.190302904735,27.846356114460363,33.952930770170966,34.5823704035344,27.898429514552983,19.802173619575036,16.277219408861566,17.337547681768026,19.607140331028578,21.92799067645417,25.416974012136414,29.003470586263703,28.47831601547674,21.452608797644345,11.377007792269294,4.543650129805275,3.416769747374444,4.472077489421341,2.878529943546443,-1.8893715919763918,-5.827706362702039,-5.106086958402841,-0.039528669327707766,5.645897019522242,8.76256447157636,9.352198939586668,9.656479394425359,11.09534840102274,12.782836187190261,12.901626304016414,10.923453349869106,8.185327400574652,6.832070686900397,8.810734446101204,15.305904867204635,25.560473393786193,35.61927181992484,39.77151453114364,35.352804549504015,26.27165373311174,19.961364587212646,19.692608913108486,20.978670126018855,17.090834716588144,7.607845557478174,-0.41290248091323745,-0.24464329685568698,7.113014165543966,14.432487348751057,16.0209180709302,12.46707293589189,8.301935811944722,7.019196420895035,8.926307207746815,12.185581171248119,14.636696101189143,15.459445244395035,16.351600425099267,20.479100779277083,28.6949587077606,36.88504798723638,38.80877455347325,32.38906240177914,22.167757981868817,14.801434215125216,13.035656490788327,14.783749989205646,16.679529707528303,16.70549692455363,14.111896579325744,9.416011613432742,5.281129360567082,5.284735970993732,10.099405763241938,15.981380042563831,18.713796102054534,18.262615938241474,17.591674029545104,17.419310847727935,15.04829332541884,9.452174399841132,4.891000396235129,6.702776058136432,14.308563174108945,21.197725612061127,22.376909449637346,19.581296240292243,17.827993888203913,18.620009628303894,18.87022344458231,16.13694727372289,12.573419120114785,12.622582665438498,17.892453295108826,25.409051839049074,30.50361338254325,30.56950224290691,26.27930384540946,20.23824284428411,14.960117863589243,11.652039953140783,10.220513772205411,10.039057159030238,10.537279230321218,11.106128885546754,10.937494211326396,9.644617361437522,8.161671929123568,8.381500686545708,11.24729525516366,15.310290263021049,17.8489492004062,17.821481792969273,17.424880398200003,20.09233004705531,26.55581175551155,33.070542677868275,34.159566912036546,27.676388522199268,17.14428722278118,8.59358640145042,4.826517396177396,3.2366653140626696,-0.21619011949397404,-5.349415634912061,-7.308898432617408,-2.313071495605429,7.174690049335091,14.489513490605948,16.07169685324997,15.346854788919574,18.364321693048648,26.44167912990515,34.707638788217785,37.964631479703954,36.26628327593591,33.552208802892366,32.00393474318358,29.984043073332344,25.867348297159293,21.73969037560977,21.274619649459485,24.393542852389064,26.035109376963284,21.196446454965223,10.521444789363395,0.2735710071353979,-2.8367457093570505,3.300544736797958,14.947475410054892,24.926265370340317,27.03190300802946,20.397208318316007,10.614747589906084,5.351006860407928,7.398397953519255,12.296591205518999,13.699107496398387,10.557576141743901,7.580198989469506,8.694935309200313,12.01288704441222,12.42119919304653,7.8448628479596545,1.0813041873491747,-4.248510970642493,-7.6287617087752375,-10.94064964672051,-15.417642160270683,-20.639758797082212,-25.68044400071174,-29.467763398545515,-29.750968923563637,-23.021083395541158,-6.3306216790399885,21.132946862361333,58.31933897735643,102.78430901375314,149.33292892605954,188.3846029222836,207.69141909464327,197.95007827550438,158.29921164646578,97.46364457504606,30.223497216427262,-28.125117140035222,-66.95922211298051,-83.77032102516233,-84.10033979347985,-76.8954657110907,-67.92704091189361,-57.018817640806034,-41.86955042841338,-23.97613361514729,-9.308817416541585,-2.5598830110358595,-1.9424148954421034,-1.1324162407627378,3.8880371718105087,11.34493240719835,17.27032484357937,20.95388476845484,25.276385996324635,32.09654050181085,39.05989765101363,41.800469303189615,38.54941587878326,31.717518243106888,25.194020470563604,20.886172391100136,18.08355397418281,15.609842549880737,13.831112792482447,14.048177146657723,15.932279045201385,16.439488794382736,12.638175402510177,6.023028905484239,2.5818453990230266,6.764299170593285,15.582466896864664,20.776615141439354,17.891641209753324,11.608273559255123,10.110615184239252,14.945113551338427,19.211358019257425,16.658142725515834,10.08250697915689,8.133895973632567,14.596741602274694,23.793862049872118,27.522485145253416,24.20836788760944,19.074482339394343,16.570238165396916,15.788378052071614,14.070435052303024,12.296716955423967,13.843319191507186,19.089646158338986,23.99728397398621,25.260484781172106,24.764894056328863,26.76410830998369,31.472123065320556,34.071724832342994,30.84857358715677,24.393609301805387,21.022406784834427,23.782054624183825,29.6499987276104,33.48241621611459,33.051091238199575,29.680397630396218,25.506317573855796,21.63880582628527,18.576142841176004,16.910999436822024,16.982721549313,18.185567606716102,18.815307089754295,16.585268491789094,10.009139899927677,0.43433296380271263,-7.306525782259729,-7.876090541485045,-0.5206034392622714,9.07004726642309,13.251062765674126,9.41876626463829,2.3451873776208574,-0.5448943189028566,3.944132035973263,12.274174403952603,17.755027108723578,16.50452927852811,10.690963820920514,6.480681344716993,8.33802111967158,14.719847810933896,19.64874146727472,19.11026138224419,15.539182123605304,15.007724264542878,19.96978079610962,26.023987798920615,26.62761274854851,20.199652997221595,11.494446400585542,6.446234395292317,7.069632509188016,11.423059104404704,16.637529380928918,20.525171936766974,21.36006941451571,18.54403568933553,14.214400699255139,12.493780520463227,15.508891431601896,20.63597808487127,23.173796100311357,21.799947527140375,19.90065920831916,20.81461821865625,23.15590770460117,22.572318983512464,17.817860743632814,13.08385468559097,13.256079732597767,18.010301833093102,22.197319493960613,21.868211794818645,18.3100800122959,15.526255717500224,15.17069849415583,15.617495691076552,15.604646559749025,16.612054897116554,20.261882243779002,24.403469946246755,23.959481512014282,16.545634574242552,6.1791087626467265,0.003667815737741123,1.2475593992777663,6.337297637198377,9.309887879210175,8.24419920655476,6.532044670597591,8.291487229740948,13.799343316916454,19.830120986810908,23.430934069151004,24.223209586547828,23.29210987624334,21.243598388744473,18.244336944994746,15.432332225605967,15.084080344325239,18.674651051949663,24.76354947614334,29.114814515534945,27.467787457729525,19.023789131543687,7.786957698781771,0.15155698219636107,0.17260944475283196,6.497981639579658,13.938224437483886,18.209367839874535,19.082914037720453,19.06936327488056,19.77429945724359,20.212161114327387,18.47361778757582,14.326300212241502,9.947191759077155,8.355348861893004,10.990099872791335,16.253252369056842,20.438268505896783,20.93881634698043,18.972886346143703,18.384660636646867,21.057090990988293,24.2996550922849,24.116665039934396,20.757553206255064,19.104357885370106,22.609579691669612,28.31011383388174,29.73958029610673,24.513523999021213,17.14605370416656,13.640438488444211,14.69637573324455,15.695484355231253,12.863651252403626,7.759952087053772,5.0641522493293,6.968939923811263,10.933331832266608,12.90856627144503,11.827294170150042,10.375660423671535,11.800531624827086,16.687020653764836,22.805194712009808,27.16923718664107,27.57697913094979,22.832146702346023,13.046513841274388,0.5195623496210242,-10.482170069122635,-16.147330710185233,-15.849516332995154,-12.395082590916182,-9.815332165873285,-11.165120947066422,-17.493837839270082,-26.97448496967882,-34.259813858385634,-32.3456888278166,-17.206484133980133,9.376362166619852,42.961622897119724,82.02848950497336,127.51041215603651,174.7845998063815,208.3861867387778,209.64157543907058,172.4672092042266,110.56470637629633,46.90266713643214,-3.904208278155362,-41.90667491824714,-72.30049314107758,-93.80882850135232,-99.15109002818801,-85.37682980513885,-60.02985337716615,-35.58869235449659,-19.315683537553415,-9.881284832925877,-2.593286422595082,4.583967630079163,10.573982573033959,14.404309231538512,16.65657716143188,17.94027774335591,17.79942543292881,16.149767981107452,14.907812569624177,16.73323205175148,21.87093063829291,27.202116145851573,29.277482608680092,28.09433074691818,27.095805298070612,29.100662113720748,32.62531948347204,32.81692194566158,26.34790189610487,15.435244412831985,6.779436269758302,5.894965426804028,11.818563441056043,17.492848284125483,16.275928318948417,8.69804185975519,2.280219880894448,3.8444566955432573,12.251882153419185,19.767187109840208,20.591775909871274,16.596427079604087,13.848888407971685,15.019305903176186,17.300368628354434,17.38069718523235,15.73425186064642,14.65769995868008,14.0960618284057,12.026032453596212,8.564119216064187,7.072714096887751,10.269257932010898,17.06562069218098,24.538581949308625,31.390037195614596,37.373921936296156,40.399878106162745,37.491286970412794,29.60622722207208,22.86333413338808,22.538429859613835,26.888028900752154,29.389353820763063,26.922793372549858,23.169470611818227,23.09141059318026,26.514446376670854,29.317991645428126,29.451880554517203,28.638769285609285,27.91341985525125,24.628284547120774,16.1708431406805,5.280910951721641,-1.1124046516863695,1.0410838067413974,8.496102907286998,14.124498933267752,13.823472901667396,9.365147803941888,5.365562409303056,4.736834892370608,6.908982861318885,9.176987308328457,9.176918629374896,6.707010212438378,3.827018918199015,3.0188078439036397,4.860409704307785,7.653257615841099,9.59258685772372,10.925649287122367,13.342331694977146,17.35819532799527,21.120492596204638,22.187350733373655,19.99218174043802,16.16175252851617,12.97022716074384,12.21064590569416,15.068581114781395,21.516849344396103,29.02127886852181,32.89447233197423,29.658200785398595,20.60663065722052,11.284979257482911,6.776429324558226,7.594208977182859,10.213006464611231,10.918838084027207,8.660737654618899,5.009280621795842,2.7366454118439263,4.4180710622577815,10.757657816193609,19.1357785876543,24.734232489413042,24.753702368031256,21.59279934049639,20.49931513321026,23.618216093594313,27.638764492555396,28.261156435458496,25.76025279453629,24.189206192222468,25.244862263225883,25.23538583839418,19.657968093258624,9.73987083286191,2.469622914003201,3.6791838720837564,12.03399322787422,20.350764005326187,22.322195002768282,17.63077196838078,11.096711660224338,7.6283670317871195,8.15938867469288,10.176390715693932,11.662785583184371,13.62457203336109,17.978929668660125,23.575526433620226,26.258532988725403,23.893138088856894,19.81100635247451,19.096077201442945,21.80857973149305,22.45815925897663,17.20174649424649,9.346910259684714,5.49465686103157,7.380212360117944,10.359358509604036,10.12207357352996,8.04245027414387,8.302910184294714,11.8102834444383,15.555853431445685,17.272723477264677,17.980969700933972,19.42297613448161,21.342400974800746,22.68885862524249,23.706994415821086,24.688201026402552,23.69644582077467,18.476795934068964,11.147129607576739,8.101871392215878,12.813166122124787,20.040848362408482,20.397418418017534,11.369553715881112,1.19617057399929,-0.2739926552817423,6.97794210230065,13.814241004223332,13.89185856894153,11.272510190886097,13.776339147821199,21.435454767988478,26.235506569111596,23.743281961606467,20.206028832284698,24.34553753271492,34.47403358672409,39.05309296254151,31.079669216238564,17.57973409547515,11.488101053064552,16.355930297253046,23.28765065046549,22.902843242065696,16.19680519076222,11.4744033721243,13.279304466537821,17.755867467404503,18.447296127058223,13.669320140084894,7.170066208691268,3.418688078114963,3.8207459191639366,6.837810406980552,10.38529390502236,13.86187647494236,18.245291034483074,24.10248138540729,29.339423133041137,29.59960944892599,21.86922317051277,7.839463396893166,-6.742389054880686,-16.14185679141077,-18.08067404011471,-14.072907698276305,-7.712210947474631,-2.7831335219691953,-1.758146848656233,-4.989291171402013,-11.269952569509206,-19.13280057350671,-26.809530668377466,-30.538497232831524,-24.08681183140829,-1.6385179101329417,38.18762427895045,90.9307743325287,147.49260987543042,195.32477609319466,219.9987387462676,210.3793092814986,166.21974277768325,100.55847522469786,32.20485881967418,-25.23132059776037,-66.82036784482773,-91.00688271210899,-95.34844552817796,-80.08453870837202,-53.51167506405826,-29.24024696042376,-16.300314465690832,-13.275389040560706,-12.830063797290464,-10.209975471339567,-5.948321550352359,-2.0843315367534765,1.1605935492543875,4.529259414646675,7.9510777382396745,11.15219297496604,14.854946831884766,19.763388424774888,24.85497803513547,28.22750247756942,29.58458889647245,30.289852298282543,30.481677514575793,27.821191519841953,20.730986715315943,12.243638260956725,8.640175372502123,13.35019827233942,22.905989070634718,29.720970595136663,28.79821335517238,21.587864052762985,13.859054759420518,10.435156979210834,11.712447262652752,14.399599405952715,15.186057042895246,13.894870312267201,13.263607808138925,15.604666560364501,19.84258870721147,22.24763305065346,20.110242036893332,14.183573440990866,7.394753141267968,2.0698820579308275,-0.6372220491211775,0.7810356351033226,8.228999063338824,21.151263347247,34.35054447543039,40.540311340850444,36.23020457311053,25.01218299683974,14.722150057190214,11.376153443691031,15.501930947080927,23.100377417665495,29.04419576249309,30.07223403576189,26.40835747751325,21.735193619629804,20.875826974531712,25.86849079569278,33.69460341217358,38.5618803810276,37.09640587360731,31.13651225718569,25.212119105199704,21.836316480246968,19.93451759685952,17.45520687939335,14.232695577212015,11.727199462718621,10.777110988751806,10.573421031979217,9.686148451988391,7.384193196572208,4.04380973802238,1.0607943493583936,0.41594131642959065,3.2455001035582693,8.095668836421394,11.302455110380516,10.265223560554439,6.382378975653951,3.9092109875335743,5.6999114697889866,10.677000238216374,15.522480638950503,17.86640284833749,17.356856013074637,14.798267884115079,11.70063098635852,10.36181381025448,12.719254276154977,18.322645905379087,24.161261084918305,27.071195701353947,25.830299067264882,20.799091325363925,13.00289448703262,4.962122169818164,1.2846767628714724,5.5850159398040375,15.71840217680693,24.0007187363006,24.332484102535513,18.707833668789274,14.813722177196407,17.01576951705121,21.563077515065597,21.667126110580472,15.799691458452868,9.174476840561079,7.6205785442850065,11.99397511901844,18.840710252378216,24.399313439669633,26.48925053511626,24.052394637721918,17.604587893015204,10.521773955111913,7.573354473292572,10.414980453216094,15.39841540939437,17.538497491576802,16.40669158559735,16.31925634172904,20.220989762194904,25.170519252015445,25.535903890053817,19.98304428773058,13.453121708998362,11.848539455624296,16.036852699955986,21.709215077311608,24.042478741715254,21.53948903236157,16.255324291997248,11.925729502945877,11.766141898669021,16.24865345030755,21.965849987088816,23.709370708212045,19.185108348792568,11.781180906017372,7.780085312727087,10.428356086027607,16.941911799174378,21.217041163929682,19.14245600368831,11.70287217013064,3.960526369821232,1.225335224948013,5.096411396041388,12.208736745867364,17.131527056337426,17.365683511504365,15.651555831499136,16.92883158307686,22.94949349510097,30.170214765793215,32.93008794669409,28.541955523749984,19.626791955276044,11.959879931388707,9.666229858634994,11.638039483819899,12.720243338593983,9.414448205679331,4.485983760595962,4.494597164528541,11.99231574955195,21.638991544504652,25.689543495133336,22.345251002644904,16.426447784070994,12.296180351745086,9.537081266381527,6.997198281885592,7.5784049004731555,14.854724565418202,25.89611688657701,32.15559099267554,29.200135505020107,22.119298331533155,18.320513889747257,17.393030636508893,12.566812178351425,2.0091586790212967,-6.162348134790474,-2.858889740886146,10.674620946027504,23.988270111769502,28.985156739585133,27.136295128028802,25.05908726549323,26.239408556130616,28.86650197186879,29.541770328342132,26.477241152721017,19.969542676136957,12.446185942592695,8.205138185168943,10.562036925877717,17.87259185422579,23.800569316827858,23.0703873542888,16.453556019150508,9.216794577703327,5.619060547116784,6.319984055858805,10.221825616472053,16.228392059740933,22.45576221846855,25.855718947572594,24.552882791386804,19.933272099026738,15.048398512982123,11.437867554512973,8.874327084739406,7.615565787490229,8.60641224227433,10.833596821011918,10.646695555829867,5.548027512578727,-2.3599419718546906,-8.589850703312733,-11.455176978896155,-13.085593624705186,-15.437441684413235,-17.914121534218875,-20.026030367455107,-23.66204245528878,-29.5149503088395,-31.95057446680165,-20.95016199322455,9.281384424913263,55.16702678397987,107.73483442888113,158.82129098167852,200.66400332952367,221.84037458207078,210.0134212499831,162.69102002443773,93.69130092012972,25.36746835398549,-26.6863178842775,-60.6144857029232,-81.52897175102179,-91.49764564553442,-88.21110838904107,-71.42753477449831,-47.1588397648135,-24.403079688164993,-9.124070370374072,-2.0254607903187294,-0.5722472795628047,-1.5097205371666755,-2.0413631359349997,-0.6148905445061036,2.468102216164019,5.816443369816157,8.748746312777367,11.795070239628371,15.24868019685615,18.342924426840913,20.781718190495326,24.058310015785455,29.38316490750717,34.37763587492104,34.16870621743814,27.36564545877516,19.60645456697103,18.710476545828033,25.96556600547376,34.00137838329365,34.25532483544906,25.426078984317233,13.618786818965786,5.440547418755169,2.830367848360854,4.140152794992064,7.569189299249672,11.982653119727411,15.767028967144446,17.173728876469834,16.217911442995167,15.03039795399603,15.627026173332244,17.778555535029245,19.462977863083772,19.06789220944727,16.866602693657548,