86.44912660169355,52.85001449998206,23.874488127513025,3.2438467830824025,-6.9128007829229405,-6.379822896987363,3.252317216710489,19.073852454937224,37.580767739584324,55.44669213014406,70.15402187635112,80.34988157151255,85.87799128880984,87.52829883056717,86.61617170386238,84.53370240228716,82.40136718395638,80.89760315355093,80.27556913440529,80.51372338939353,81.50953890750837,83.22395751442724,85.71587248865386,89.05787056641499,93.1772577013208,97.70104640613047,101.88779021961359,104.70152956878327,105.0330415071716,102.0181609223448,95.3611944749744,85.5582527956779,73.9358288561913,62.46879938541805,53.404529140930755,48.777179042417686,49.93108979081951,57.174033882949566,69.64984133132553,85.46469294544846,102.03863537042514,116.60047116874135,126.71434113269284,130.72562196180036,128.0400530494486,119.19324705261965,105.71506568316526,89.83237018016737,74.07699838802847,60.871277657301775,52.154959508956914,49.10135753294318,51.953228134104236,59.99416063725052,71.65914080509553,84.77590937516177,96.91384711126622,105.79824770911365,109.72792550830926,107.91933234670684,100.69901343706842,89.48397378310689,76.5280087054204,64.46484780810712,55.734134265391916,52.017493433986814,53.82430794454418,60.342704125277706,69.61180199129406,78.9905379775271,85.81659909876394,88.09054728594766,85.00397042355192,77.16402160278027,66.444312636982,55.49335186912033,47.02873302123935,43.10958688754855,44.591139098294406,50.91830769807999,60.32137846943978,70.36227607879596,78.67702999451986,83.69939067321747,85.15120346407137,84.14781519175786,82.8753967300982,83.92068248634122,89.437200996514,100.38541229142223,116.07106878234585,134.12930882518043,150.9822628191051,162.66803774459547,165.8347737381657,158.64373258227002,141.3436418102376,116.3598398604955,87.86412363026501,60.92194764309103,40.41864435992442,30.01919662723304,31.404462658017344,43.95564040352853,64.94785146617951,90.19231224164695,114.96458768656426,134.99795923153735,147.31747519587628,150.73969645470325,145.95010115818155,135.17182126048985,121.5310364413186,108.28543647523458,98.10055201532052,92.53363662150727,91.82483916514056,95.01699207310071,100.3474455197012,105.79562118262653,109.6409319994525,110.89204863749875,109.48726093122148,106.22614229414788,102.4607242028671,99.63355319163833,98.78698473666206,100.17426965596263,103.0771934024525,105.88338140828726,106.41117767600686,102.40701826460518,92.09506434533715,74.64296881334758,50.42583142281701,21.01875528689526,-11.084476933334306,-42.96018860636237,-71.8313474036759,-95.58897095473324,-113.12885770042782,-124.42135856817823,-130.30133890500852,-132.03913093352134,-130.81175302283927,-127.22111352327839,-120.9948010241991,-110.95774962994955,-95.29181367137397,-72.02372952584432,-39.62025840357555,2.460970365994747,53.40765584175531,110.97313923947604,171.70787016691807,231.45243883899767,285.9801332299117,331.6434535564563,365.88296347181176,387.49575163975106,396.6234558979545,394.48933789294557,382.9720637998396,364.1363331693785,339.84022220201865,311.50782366721,280.1033010423312,246.2836043281499,210.6578341417564,174.0541515157878,137.6965761782747,103.22278798097503,72.52157880257552,47.421986925983134,29.311342561979465,18.78443404730477,15.424374066080514,17.787527386670543,23.617131738565234,30.25419980534084,35.16367132793018,36.46108193825996,33.31840246136903,26.149797078617585,16.52441770461831,6.814015284861466,-0.3551715262140127,-2.7287750868405993,1.0118269004848597,10.88060900760004,25.50632410697843,42.37136910724122,58.32897381936764,70.29156867771425,75.93902993367387,74.28420288273169,65.95909466655144,53.143849167266744,39.139861743701964,27.67079835836358,22.061356336503025,24.477428484694354,35.40348729111022,53.484000837023885,75.77521822611068,98.35988740081942,117.19221137402025,128.98384798212024,131.92868087580646,126.09811224212592,113.41309743432342,97.19702104472745,81.41159182023684,69.75302562219674,64.81892616586683,67.53985033102073,77.00631545958639,90.72753458164254,105.25535979798106,117.02026320655112,123.17758785041093,122.26282652058507,114.50420591819399,101.7264930527289,86.88019963698598,73.32005467594314,64.01356908737918,60.871526651717865,64.35533178279948,73.44212904067716,85.93744131903854,99.04028008027802,110.00885107117678,116.7594085727225,118.25867990315521,114.63221692630107,106.98906566113841,97.03543147175027,86.59806251946617,77.18977185100546,69.72455320324576,64.43709407432543,60.99814838598198,58.76195555750978,57.050459950562995,55.379237785673645,53.55958053679711,51.659629439107746,49.858296755865766,48.262506528688334,46.76961350739212,45.03891194361295,42.59552560058921,39.039902463067776,34.29310522336679,28.78701886141577,23.51735065133284,19.91444692029443,19.542309238594815,23.693001266637918,32.984307579784,47.07942978698875,64.62352501160062,83.43811915220857,100.9452491012659,114.72751867434414,123.08734932432148,125.46123174818486,122.57659301307389,116.30165529599823,109.21665521724007,104.00678504361173,102.82389153601295,106.77297800754661,115.64838487267508,127.9815738119223,141.3848464710277,153.10327874620788,160.63916531803747,162.30085272988399,157.55264579114015,147.09628965753043,132.68208801108304,116.71082271406875,101.73083611093675,89.9484247585184,82.85373471543369,81.02546241379025,84.12892440932653,91.07706175291077,100.29399069379552,110.01123970671577,118.53691032709888,124.4607743880007,126.78445868361678,124.98631524526746,119.0400071262146,109.40295681805003,96.98017654143588,83.05677740836573,69.18604227779434,57.02323410088833,48.10908760799538,43.626590499042386,44.17349668319704,49.603046981541105,58.981345781397415,70.69038079060167,82.67457031661488,92.79369340484368,99.21567027520885,100.76770302606057,97.168937723649,89.09144625475308,78.03392802428456,66.03452034506996,55.2848560162321,47.72821967469342,44.72528468406547,46.85188054427816,53.86007639516226,64.79526258768726,78.22799160782495,92.53776064487455,106.18171719131051,117.89365861380334,126.78354465818667,132.3375462264273,134.34516473316057,132.79646200217053,127.79518381869218,119.52233519102077,108.26357875779475,94.48855371407122,78.94821673313446,62.74395837758862,47.3231155008012,34.37069303737921,25.593244750950017,22.422139861937406,25.692122209138162,35.36915188237985,50.40322609283248,68.76463651072805,87.6875148449094,104.09926500361615,115.16792992847641,118.86332426909298,114.41152352667304,102.53299161866768,85.39201253675185,66.24362701175231,48.83152161617805,36.65097684108198,32.2299330376839,36.58705076491092,48.994601147834615,67.11096919717983,87.46586045223935,106.19981084719831,119.89758916250541,126.32906213120765,124.92815756752981,116.89783476173837,104.91421679739561,92.49536361212573,83.17828746009344,79.69228302291876,83.31719744773055,93.5717929344984,108.30067233629842,124.1371141622871,137.23491645395376,144.10475261308792,142.37164479471835,131.2928375848252,111.93248235740897,86.96637326825203,60.16849291723436,35.69413310944709,17.309380704804084,7.71885080825029,8.11515827448395,18.02307810899772,35.451290177923546,57.30683387186461,79.98283481834471,100.0049506638221,114.61879877073643,122.21758040699319,122.5418144029335,116.62561511617876,106.50888180862309,94.77576667627378,84.01028142032978,76.27473609276637,72.71336552822224,73.36049657054599,77.19326853474661,82.41942885504186,86.94019756023071,88.88740267934848,87.11289272268543,81.51327657922296,73.10572483541813,63.82530852213772,56.08001859873275,52.16086819209254,53.64590606721912,60.946376206037456,73.11634052738002,87.98784426858683,102.6154092593297,113.93477867577806,119.48231194827399,117.99896884930978,109.7644917231014,96.56989725482894,81.32498352066152,67.39040787971174,57.79686128420205,54.54633255022413,58.17272743457536,67.6738430679425,80.82999472119481,94.82144686976734,106.97549251702878,115.43736609147733,119.57906780656951,120.03276998135172,118.34225885771026,116.33759616477226,115.42320849921852,116.00208592967924,117.22696273717781,117.17933707875625,113.45227807470536,103.98752206694842,87.92828574095019,66.2245158002434,41.77812107993014,19.03198336047404,3.05896525867694,-1.6460768732653073,7.631151755148414,30.950696956584054,65.42959570216615,105.65272298419528,144.7186074076272,175.686170327934,193.0761073586755,194.05760042227047,179.02602333198212,151.43127740805852,116.9084989117769,81.94095473712741,52.4003909849017,32.331468516177814,23.269885557278165,24.230596018990983,32.31790096539269,43.745190388883074,54.954385428689456,63.519267622959184,68.60096757647635,70.8701456002964,71.9735587257648,73.75335694665031,77.48821082640464,83.40046381935858,90.57439109122188,97.29049896667547,101.6451491171124,102.23604291405493,98.67914827652886,91.78403663758057,83.33107705624468,75.52651133921657,70.31725288706991,68.79216995658939,70.86686840092962,75.35513765873081,80.40286758245632,84.14134069391746,85.34452681578796,83.87284255784859,80.75438984667764,77.871664214824,77.34956610897798,80.8380385756228,88.91872918653219,100.82802906227768,114.59044972324295,127.52807397775095,136.99381228619998,141.10621521693798,139.26276520320022,132.27722186112845,122.10266242874866,111.22883109056323,101.94084162349827,95.66612329836936,92.60615421145246,91.75952232008373,91.32171420829437,89.33244244705624,84.36788526958007,76.06437432710094,65.31377587187707,54.07090716088285,44.829043448878835,39.91587827204042,40.811843230095775,47.68279302326946,59.25505998710102,73.06399491343107,86.00604172005434,95.04787650462144,97.91317648482297,93.58368217169277,82.5075635361734,66.48578210277891,48.28360087442525,31.070518109398126,17.81664722518913,10.766562115105792,11.080224807573444,18.6873455657102,32.35863492810317,49.962824359188026,68.85602994011394,86.33828138119715,100.10808808797768,108.6471303871399,111.47364561237362,109.21678512437556,103.48750271562163,96.55513366724365,90.87833145681496,88.57671801448892,90.95386483126569,98.18293636073238,109.23859232702053,122.10525364042641,134.2242659113734,143.0785913241932,146.77259024770987,144.4602538123133,136.5119152487782,124.37876645336551,110.19737252843393,96.24865996585761,84.42527380750194,75.85502454423802,70.7775325589871,68.69114260632361,68.70279275212809,69.9514837178457,71.9565760964257,74.77166641344935,78.89414005198839,84.96694820713707,93.38398427896726,103.94818601011558,115.71870839360564,127.12288569820288,136.3195555896153,141.71157150645,142.44706488503218,138.74157944799157,131.90146062977502,124.01859468724996,117.41039286758603,113.96328757375186,114.5753144553628,118.87013468130264,125.27677435550804,131.4598235755827,134.977725537175,133.97527720987014,127.7037329639167,116.71203938883403,102.65097164563217,87.74805359937821,74.10963214408778,63.0574605950161,54.6956316621617,47.834146854128925,40.2900021925975,29.47792879554547,13.123661074355217,-10.094726386716546,-40.141386954511056,-75.54122714307991,-113.61487030555344,-150.93786732637543,-183.88322535978168,-209.10604404307398,-223.87262939024748,-226.2056469791056,-214.88546355994222,-189.39182983162962,-149.8744881151136,-97.20703332470714,-33.11903658301215,39.65865724287955,117.33796186201181,195.2072647815898,268.0109509198148,330.556712149472,378.45196309559196,408.81018613259806,420.750484089391,415.54731336952466,396.3663495440547,367.62526415942443,334.11638767053716,300.0927880101513,268.5314610125757,240.74256869815935,216.4042653597688,193.99318670388357,171.48114868063675,147.10569242341055,120.01162504704062,90.60361320841747,60.53231198332393,32.334826014617676,8.837656308150923,-7.5154287954849,-15.238849109292802,-14.147040343051888,-5.392097148818678,8.7948216352191,25.580746316523417,42.10458036350846,56.013839525266654,65.8520099861886,71.22805185859656,72.75367910380065,71.78406466342308,70.03368394361765,69.1554945774918,70.36855856433259,74.20085992383379,80.3865836670161,87.92673752274726,95.29394883573238,100.73976961074875,102.6478772865292,99.87016954761313,91.98540136163541,79.43191527480967,63.48621478600149,46.08570560597867,29.52289987881508,16.064499172964545,7.566164698596752,5.157733861856958,9.061924491537273,18.583365921115607,32.26939638456705,48.20736681987787,64.39378456215483,79.09596398267762,91.13057570233494,100.00469376912004,105.89840938485433,109.50513419583105,111.77746226737294,113.64502928826253,115.7726323312001,118.41235560892676,121.37705353808893,124.13201264834811,125.97373477570306,126.24658711785295,124.54238580363949,120.83494934409552,115.51857052858713,109.34166964641783,103.24983746773584,98.17146137126323,94.79163396956945,93.36379826388418,93.60365794442782,94.69646955765351,95.4285073338816,94.42879421576966,90.4817607224711,82.8504180397972,71.53785831317126,57.417430308007916,42.18120436454727,28.090808118360968,17.559484454655173,12.639293899749896,14.521471988842345,23.170160364903644,37.19329984929889,54.00944516929905,70.3034438312358,82.69198945847543,88.4603544826523,86.20123523320737,76.1966038921618,60.434819206880114,42.23793070329085,25.56886753091134,14.170593877546088,10.737178700220442,16.315630593524517,30.08532112458798,49.570683048591754,71.23559555738119,91.31200792527137,106.65688440716134,115.42620428330338,117.40438193436295,113.91899603144533,107.37953540817104,100.5755563801946,95.92843913267708,94.89594353973338,97.68012483724989,103.30068550995395,109.99307822776328,115.80229653639377,119.19365346490284,119.5038505476029,117.10752239538691,113.26042083740597,109.67529431103542,107.96321223002269,109.11001250759657,113.14500675774538,119.10144640622688,125.28246954932075,129.75708919228634,130.94354177072543,128.11075206584883,121.64990405691292,113.03110244995888,104.44700344631232,98.23261405868364,96.21395175277983,99.16133767431003,106.49904725522754,116.3588770226764,125.97698765597545,132.3445768493849,132.95571459426665,126.46740039476761,113.10439571688009,94.7006558192516,74.35552939230242,55.77585779666565,42.451690016021416,36.85606641524044,39.85729243251886,50.48596819238301,66.11871595555323,83.04487199075756,97.29281204203082,105.53011075379321,105.83108447958432,98.1318110103594,84.26149081260039,67.53488916402382,51.99221233782049,41.45668040313445,38.6263248563107,44.4135786194234,57.692943523517165,75.52495963118575,93.81411620440423,108.25505970907207,115.35008715528349,113.25920613460421,102.2786841955468,84.82771981073455,64.93696799199424,47.350175770056595,36.443112681141,35.20933776572197,44.54901835515189,63.02723011871302,87.15887623416006,112.15456606437996,132.95521756938942,145.31817901742173,146.70971344949118,136.80858479458982,117.5201393827804,92.51562672949665,66.41927635723759,43.83993030324152,28.46837343315964,22.432405309129386,26.02908519757325,37.85783896172888,55.28413612500565,75.09450121596507,94.17481199552812,110.05904157857236,121.2468180005659,127.25883192973924,128.4684661545225,125.79788851743889,120.3855774511339,113.31829310091899,105.48188136888345,97.53614704712304,89.97602907025338,83.21750895282084,77.64830325945941,73.60797492124027,71.29952351557125,70.670963222047,71.32672755527577,72.5273185172461,73.30990696109916,72.72073914334861,70.10596898182835,65.37596947442421,59.15192103665515,52.72676502941967,47.82162722314416,46.179526956243045,49.09318772427771,56.99490896326058,69.23213506419228,84.11071921264188,99.21827029968641,111.96112743031915,120.18280821172782,122.69989900155797,119.60449279743509,112.23954170658213,102.84106779928528,93.93490813568725,87.64891625976071,85.1320122151759,86.24813238284959,89.64030200785126,93.15663010173186,94.52477069419349,92.08481644320956,85.36615422959768,75.33085595200339,64.19623043681625,54.86848085724016,50.134230796133366,51.83353408032208,60.253243317818786,73.92653330481947,89.91586282461802,104.52194795113415,114.23825408987378,116.6945807044866,111.32764045664543,99.58456558928118,84.58951269372803,70.35040406625944,60.71118647681459,58.32874021959101,63.95121707899787,76.19578940626603,91.89009300118849,106.8896597529848,117.15513689688136,119.80385878282199,113.8587505338373,100.50055563551341,82.76380172335016,64.7647309860707,50.67042768276002,43.6804266460903,45.279907723437105,54.9433202782172,70.34291204095591,87.98380913435442,104.08225191066911,115.45301132842849,120.18633401314831,117.96579318747426,109.98281979626385,98.51054327638366,86.2797429134572,75.83327769184444,69.01815160498629,66.71621009601378,68.83654423523133,74.51951699662833,82.45489448816225,91.20544271605863,99.45112962048528,106.11552061913828,110.38696556076862,111.68422002486385,109.62810676655859,104.06503919775979,95.15271706725592,83.4773944083783,70.14209857599904,56.75827818872573,45.293809087936104,37.7727721712974,35.873960837748996,40.5187734177409,51.55962724653913,67.66874857155918,86.48469267865848,105.01037522083325,120.18880865474178,129.52997047935935,131.64020726727878,126.52152660670622,115.56023065008169,101.19954229059888,86.37055958245608,73.81890784292287,65.49373537442345,62.152603119710484,63.28203022852501,67.35233608594142,72.3368939317884,76.35345428467423,78.24852676824929,77.95638105107494,76.5213418580225,75.76291089008254,77.66463870732743,83.65302135495018,93.97693450591152,107.38639415881808,121.24021966122662,132.06021965401902,136.42214476423294,131.96501198773925,118.24256546415451,97.15455186888332,72.78419070254402,50.61447806194702,36.264543760046294,34.03421658625084,45.62743922879842,69.41475379836581,100.48588026001644,131.5566557906557,154.57412048487132,162.66618828750313,151.9629162562937,122.81296907576726,80.04049233638453,32.1105285674794,-10.657720297170458,-38.43928291961905,-44.25938179486846,-25.774141863336027,13.98721392600449,67.13902969671375,122.62768805024399,168.7103767818257,195.6380040743983,197.89554197092616,175.45507765810387,133.73709043421348,82.29328195838897,32.53897423804172,-4.906331540752131,-22.62265293788731,-17.964817060093964,6.547044808436319,44.07749269906135,85.31548073296955,120.81844056591132,143.26993706810256,149.10577249102903,139.14267686848834,118.10583723313957,93.22649181813611,72.29943283445459,61.7009234889608,64.84921824292756,81.45512702591033,107.69989231459573,137.24863505183444,162.81664805687583,177.895656908081,178.23717539863932,162.7734268596415,133.80515107093908,96.45914633127863,57.57527591222777,24.290586483577297,2.628952224357218,-3.6217102296025794,6.457290822707672,30.862321859821392,65.16772625606019,103.45130111109575,139.4473204369444,167.70036512212954,184.50527603059612,188.46736722514942,180.59264716553471,163.90789929685076,142.6999284693649,121.53662990684194,104.2755812563204,93.26863320556812,88.9302311852352,89.75891936544545,92.8001908655722,94.43719045827976,91.317268888571,81.18814877195187,63.43856925667937,39.211569782305475,11.068227819067165,-17.702664249040154,-43.93869137618476,-65.38607957626093,-81.19292251121313,-91.97487420101072,-99.43373857019527,-105.63632639140762,-112.16026007355056,-119.35654560584523,-125.95249938410835,-129.12878705590146,-125.0755282989966,-109.89999802934366,-80.65918337025222,-36.25212848549177,22.06007986492434,90.64415891085787,164.00208852516192,235.6749607026027,299.32856484570743,349.77195277467024,383.69146236346927,399.9669475384242,399.5487301826764,384.97989339732186,359.72136495285395,327.4601335809699,291.5531594567375,254.69528088421347,218.82205400162454,185.1927679421036,154.56311772159444,127.35773234324813,103.7836097938655,83.87102758846163,67.46935452010541,54.246029996151755,43.73125668437452,35.42299253678396,28.92972818294853,24.09881748796868,21.069924636720117,20.211550963382077,21.93931301372795,26.462630941671318,33.54419730778267,42.36755656474871,51.58490695876234,59.564437857692134,64.78926125463,66.3005800910648,64.04742297153949,59.01748619206571,53.07836294874277,48.54191242648621,47.55202606325995,51.46021803162516,60.371820620987215,73.00934715355916,86.956134799899,99.23548517965843,107.07957421215309,108.67937010615292,103.70242217661057,93.42336894490113,80.41780003273118,67.89361683581808,58.839604395925285,55.2270996024768,57.489366473039574,64.42719427637093,73.56907751910786,81.8848948226328,86.65090360526027,86.22070289875181,80.48434225533136,70.88820265593453,60.014834271144224,50.84803712723224,45.936976300118936,46.69895618925424,53.05631843240798,63.50289871580071,75.56951064989954,86.54323656094161,94.22547288903554,97.50814700780532,96.60701283084853,92.89617301377788,88.40724117020436,85.15410671899878,84.49175846689295,86.70214152095647,90.92738029412159,95.4640091891843,98.32312200384087,97.88336939285196,93.43830596006985,85.47343641085698,75.58986094867434,66.09569433492199,59.38247132771562,57.26383584733441,60.46183568262918,68.38145030749874,79.23131099672351,90.45277907826822,99.33831347961583,103.67496225850067,102.25050169676409,95.10455113687082,83.47941954751161,69.50370015015122,55.70401828761246,44.47158711533575,37.60610744626481,36.025077613348415,39.67613632705553,47.63927142564034,58.36810862509676,70.00276081812171,80.68995937374983,88.8629209681603,93.4540042473105,94.02943108806724,90.84312572556144,84.80719739026432,77.37496008241432,70.33540949568153,65.52961480255112,64.51953164284508,68.26238045377866,76.85983462735693,89.45178893761631,104.30371867475095,119.09615274820911,131.3733792176359,139.06027434200473,140.9269118530868,136.88161211987546,128.00808207077137,116.32428202413512,104.31378167363948,94.34413324819697,88.12151022060947,86.3251855673793,88.51863314103356,93.35842523847357,99.03864700644348,103.84159019188398,106.63511419383046,107.17304036840984,106.11317442861079,104.75128964929226,104.55418740493768,106.63507769519234,111.33223877109047,118.02143599589147,125.22292751869747,130.97580221387813,133.37235966113886,131.09733296657006,123.8149654105983,112.29203756456326,98.22264330433828,83.80728316319687,71.2089198844708,62.04097056853307,57.027800900412984,55.92278597158087,57.69017547299442,60.87933798717306,64.06735775000642,66.23379194032428,66.96191146831441,66.42314551310675,65.17454722681231,63.858931464614734,62.92496822863337,62.470993685610935,62.267204179408076,61.94281463241455,61.2612194891666,60.369100413344874,59.90836877247005,60.923307093270274,64.56599311777289,71.67839235964976,82.38348428280642,95.83171885977681,110.21439824529064,123.0809479577126,131.90316485750378,134.74513201781866,130.8499717424285,120.96131577773018,107.26013939502839,92.90096353369113,81.24713493177013,74.9988029626947,75.45080346219423,82.09497617655697,92.69599971251347,103.8431029276158,111.84666301113127,113.74653413811339,108.15835082791105,95.71850031553623,78.99112517298374,61.84439338077971,48.4493162109217,42.162340769981384,44.59136267076043,55.10201458224006,70.9075673912271,87.73118855277167,100.87579364385567,106.42609622158157,102.26981641508374,88.67118253969817,68.24683371856896,45.35075643045578,25.028367010320235,11.809326823150887,8.645657833239445,16.25761493697551,33.038235910438395,55.52004613265494,79.26412168267827,99.93061618025483,114.25575770398484,120.69968342981795,119.62762756255147,113.01534780455364,103.79180195967761,95.0164264693728,89.11436881722511,87.35842880636517,89.7047830125454,94.98673509832057,101.37623364231581,106.96157690776543,110.27524000888059,110.63738545562046,108.24521691005994,104.01467518554757,99.24663844772611,95.22820842303132,92.88321654508823,92.55830475785875,93.98363762597633,96.39621254273733,98.77335866841152,100.10400444734321,99.62738211182462,96.98856757218924,92.28874630150784,86.0358243065155,79.02068559843725,72.15353812388376,66.29399746202719,62.102628353817565,59.933897348458984,59.78424593587331,61.30399631341722,63.87614587807372,66.7562680511141,69.2549870708425,70.9296696908506,71.73968114677007,72.11619846847357,72.90808875063927,75.19125666770375,79.96605006006743,87.80636494010284,98.55289648182706,111.14963981414816,123.70060861827787,133.77419112567688,138.91594549835224,137.26447677691954,128.11909625006749,112.29899676175012,92.16899480916717,71.28192179231644,53.68532358723875,43.03499778688414,41.7228624618104,50.24103056100641,66.95964816699725,88.4006898859263,109.9666263961595,126.96327465874786,135.67319707446276,134.21389431885302,122.962420044671,104.43454496653375,82.64556409812636,62.11458195958176,46.768145650972365,39.02619314660555,39.30497815894258,46.05987446015347,56.34539215861435,66.72984035337201,74.30596075522224,77.51345981987406,76.54235171505803,73.20327711016493,70.30081444726441,70.68730370869028,76.26808003279554,87.2484380380911,101.85131930355946,116.60874957060953,127.17279638158438,129.4462976344791,120.73926978502612,100.64036324170534,71.35935252249317,37.42942132186721,4.822068737337561,-20.32024405227354,-33.02890460550662,-30.605065639984847,-13.20290719816725,16.234290104858378,52.657964763594485,90.03896799839526,122.65175159987986,146.20878415797495,158.5877215158213,160.0089902946138,152.66759865557904,139.95974241720796,125.53698621584087,112.44541024074469,102.56145917721561,96.43609757475468,93.53502722983018,92.75113453273768,92.99668931528318,93.67495508623361,94.88305791586244,97.29275623275903,101.76316607843758,108.82766324701137,118.23965636767491,128.74690628403297,138.1963139838114,143.97083845184255,143.65673704302586,135.76323751033314,120.2898255650538,98.96713359710823,75.07785165066635,52.87229318359712,36.700263212736274,30.058122312266327,34.77685478124862,50.54719193806265,74.89946270510913,103.6493161347561,131.71280235449544,154.1114256427953,166.94906512474685,168.15475349482747,157.84320888481682,138.23268288170888,113.15535451774471,87.27746502257386,65.1977930581761,50.60541644291873,45.65226969883509,50.64153821447411,64.06404546403881,82.94658765873884,103.42246709628803,121.40348187485112,133.2281833210016,136.1799385219826,128.80475301651663,111.00303885658464,83.9130843669312,49.63830540809243,10.890081129932314,-29.379135314395572,-68.2904424782497,-103.26279670282501,-132.13781579594036,-153.22214994761615,-165.28166017813615,-167.52593664340284,-159.61227075563244,-141.67867096339194,-114.39244418014998,-78.98221194077004,-37.214108214682945,8.718668869589427,56.40108563729098,103.47310387058354,147.9249136797377,188.33907090499258,224.00989168793507,254.89476112515084,281.3947558513966,304.01188587727677,322.9732558813832,337.9335603363019,347.85781153238514,351.1448380443932,345.9879302011121,330.8984641512974,305.2617374094051,269.7698337086076,226.59392880522978,179.21680476351392,131.93193064229982,89.10588245001985,54.370889951075284,29.942795455295773,16.23669456373181,11.88191564648401,14.137332298159851,19.604509772920384,25.05806406223494,28.182475798519746,28.03104861129151,25.099496313362895,21.01203528602847,17.92296246575076,17.8115832340931,21.872434833380886,30.16947535768103,41.64231290234685,54.44874544314583,66.53048076730056,76.2264537435154,82.7480157281271,86.37468889763143,88.31421811284442,90.27106435406083,93.85359486911256,99.99725141532139,108.57569203527098,118.31704181864077,127.0545174197592,132.24593841259735,131.62231538179427,123.79225638722788,108.64459586862053,87.44994028396813,62.644508451890054,37.36220682015129,14.840526902887692,-2.1528904826897204,-11.745740353447426,-13.163000771673438,-6.695601329589629,6.514180603062338,24.78381667473106,46.20516208178937,68.89234457907136,91.13216664931858,111.44784716520603,128.61528450650513,141.6779571964306,149.9914929040614,153.30011084627276,151.81696253409493,146.26213756478617,137.81373522722842,127.94987040971098,118.19561185979299,109.82569542266296,103.59819495888945,99.59600784895724,97.22943612304813,95.41031314629004,92.85897734642643,88.46494640333252,81.60385805680363,72.32331565589355,61.34666094199666,49.89548443088674,39.38322651087598,31.06816450326596,25.76329119642703,23.680781445058322,24.446309121864765,27.267144971564566,31.19337657178326,35.38753729748999,39.32114523564253,42.84499384755927,46.12387247029453,49.471139910383094,53.14951966036577,57.21240841431159,61.44275554335636,65.41050295225297,68.6270596991925,70.74078077896559,71.70191305698249,71.834413669088,71.78231149242434,72.33976203473252,74.21335795093805,77.78943592393323,82.98058921022904,89.20344902621926,95.50106540901017,100.78009666167601,104.09848834230111,104.92416575026704,103.2934335951023,99.82640462935764,95.59673519524931,91.89194869937792,89.92773546742009,90.58732461265014,94.24487094622853,100.70498951262937,109.25853964992844,118.82716487354135,128.1538772874758,135.99645388911193,141.29208027714796,143.2790684726394,141.57680202200865,136.23248815429451,127.74084507814264,117.03317631694165,105.42159882598055,94.48002811594232,85.85041881475665,80.98199908438053,80.83792159750287,85.62904761465848,94.6481711086181,106.27157961420171,118.1658381837247,127.69024399379539,132.4311593453377,130.75807975037762,122.26833316998622,107.9974246538317,90.3167009018861,72.5108703043631,58.10812521675674,50.10451787989586,50.262015585946735,58.65378399245883,73.57960370589012,91.88896400642034,109.65031733954774,123.01694218341474,129.08659733751938,126.54867858389024,115.96122377652289,99.58980117958143,80.8485773137737,63.48298716831784,50.697432652606786,44.443468358269435,45.040573609766646,51.213933066616015,60.525088746347194,70.0705088186799,77.25685572791001,80.44760133685439,79.31654631300032,74.82838197879089,68.87031460438908,63.65373377892408,61.06390452917549,62.14321736946581,66.84814264246884,74.13560604039401,82.3362623865867,89.68866368394207,94.86448152785611,97.32317668680746,97.39207794577422,96.05687436555925,94.54072848406243,93.81845845271465,94.23396844247411,95.3564584114881,96.13351767742847,95.30006541368596,91.9125771221122,85.82717847800161,77.9460345668735,70.12012369137369,64.70084116183122,63.847175056029705,68.78414711077363,79.24243853310625,93.27448986172078,107.54538440784874,118.06285674612664,121.17819933626393,114.59819443513042,98.12679955908327,73.91379515427165,46.11290261527244,20.010024529300455,0.8297894490319103,-7.477818925492638,-3.1565638726278586,12.970868621993167,37.74975196337092,66.50094426460338,94.16817541815651,116.49620300300404,130.9299231292717,137.00994538575569,136.18673269496603,131.1409057408533,124.83352952111163,119.57829158003106,116.4092696824882,114.9195477893426,113.59803903932902,110.53873642413711,104.28378349635985,94.5224009659816,82.4128740539802,70.41056550613293,61.6363870678092,58.962430268133126,64.08227852728346,76.8462571902129,95.07263415899695,114.91448469807797,131.706218471187,141.07827315529715,140.05081501616584,127.81925360801678,106.02414237549048,78.43295794727241,50.11355550039093,26.30743904384764,11.281950142804893,7.437119818737699,14.869416948637376,31.473126430870273,53.52483792994135,76.58319345188306,96.47216017159283,110.11479179204176,116.04078506943478,114.48635004839086,107.11077615166823,96.44298122136422,85.22219494855261,75.80069422642528,69.73803105950093,67.6497871918339,69.30075469026582,73.87224976093545,80.30021812931572,87.58024860068153,94.96312237790579,102.00921260991413,108.51722149049729,114.3790154059992,119.4286490463981,123.34784530772299,125.66580156940431,125.8567867804907,123.50556807517803,118.48701548100018,111.09912472843587,102.09937821465299,92.61959295743866,83.96745150210793,77.35507400532306,73.61768251720392,72.99322353163343,75.0236551244214,78.61285505985555,82.24016901287041,84.29069166373235,83.43280231156909,78.95751634484918,70.9980158102605,60.57082403939017,49.41858408482948,39.67949940659622,33.449867854258535,32.33376850257022,37.08042881612967,47.392929298307116,61.954603901016746,78.6705239005948,95.072221646759,108.79618071825632,118.03026203591983,121.83075859185806,120.24482387410636,114.21991433693206,105.33229066754853,95.40766136137215,86.12864537507473,78.72105128440772,73.78516913417641,71.29721128978171,70.76081547970102,71.45125760319489,72.67565862993855,73.97505374042171,75.21729856825941,76.56597494824203,78.3487365845515,80.877927911478,84.28813545860358,88.44700213001815,92.96936573537768,97.32940300488933,101.03156336114161,103.7792681314484,105.57804189256649,106.72810552668732,107.6960197969628,108.89573719620256,110.44420251981062,111.97417708069213,112.58050772680653,110.94522725569695,105.63851102195638,95.53875130094413,80.27119170788453,60.54348985660988,38.2669967693763,16.394395846462704,-1.5302736535424746,-12.03942649670105,-12.49414774293164,-1.7512549281528604,19.42148427151955,48.30435796231717,80.60335298504671,111.1961523354086,135.10672635004389,148.50672240064688,149.5236774539017,138.6685020486395,118.77248592619875,94.43086510575374,71.06137520117412,53.776531293797895,46.315079661882685,50.26951008563676,64.78275266211601,86.78244276330794,111.69897667046865,134.50259814962243,150.8214325228072,157.88425190746176,155.0739553012195,143.97046884705196,127.883391922722,110.99594252816954,97.33344736880942,89.80955983104033,89.58096383375445,95.86257682198875,106.23875121617687,117.38093710567877,125.97976397798865,129.6457495505888,127.54180546304593,120.58092356977164,111.13659309507295,102.34247800728345,97.16865543584271,97.52472093559145,103.63782424559984,113.88520761775573,125.14289480859156,133.57427393352452,135.661066374513,129.20681667678764,114.04055294726572,92.2180203442616,67.64382507380486,45.187738957899924,29.50341504567284,23.84206499030017,29.163395955089506,43.777482647422055,63.620886475043804,83.11141596027053,96.3798556765969,98.58187992484206,86.97437027407142,61.50212067583546,24.766965057237254,-18.592267337739294,-62.93520533937625,-102.8005806675708,-133.93915108549206,-153.95993539246658,-162.46536683983777,-160.69234802511576,-150.80530771266407,-135.06937620946243,-115.1463524017089,-91.7024455216416,-64.4134712161155,-32.33209363829392,5.521830324210887,49.54334653917002,99.0889095096879,152.31944390466066,206.37705509729525,257.8326899797768,303.26762105282484,339.82372625432845,365.5819238827186,379.6937621674468,382.2747420286965,374.1412930354084,356.5125362039167,330.79168858116566,298.49393569680615,261.3161455082075,221.27524770977823,180.80169026045928,142.67854035356407,109.76633538206997,84.5341435160295,68.50180321866858,61.75746067411848,62.72490537203527,68.30801842878904,74.44405332679075,76.97910874262567,72.67262727403187,60.076918408290936,40.04464761061461,15.695480883759235,-8.194890640871318,-26.268243958380637,-33.875068724908374,-28.267869182823677,-9.391400168071776,19.943753369947213,54.56727283996383,88.0274250016354,113.98911764955471,127.6177704605156,126.61908189201743,111.69265333251316,86.30510421548502,55.85646560031621,26.458076433620988,3.624275482671255,-8.815300411292645,-9.348309654150293,1.1509375616328625,19.87895342949986,42.92745503971495,66.24217666646967,86.47695088677892,101.55859285551298,110.87336575499135,115.09206361304764,115.73796922009618,114.6489608331897,113.48437671344604,113.38623307625414,114.8408973632254,117.72369926738683,121.46437427229426,125.255964396289,128.24289618569188,129.65518221446106,128.88964800574996,125.56175687002236,119.55483085207612,111.07826016396385,100.72139213764163,89.46835634818677,78.63304137442606,69.688493701767,63.998637906573435,62.50109753879895,65.42280828758055,72.12044772877807,81.11767969667115,90.36314104931157,97.66937396642506,101.2327463243522,100.09821354732874,94.43426963397458,85.52612928157765,75.46903007916947,66.62859649224018,61.00591821008013,59.679676862201696,62.48384512976072,68.01903728512656,74.00465980710817,77.88321412121392,77.5152703298902,71.77543255202255,60.88509328403795,46.389952421837734,30.78879299143442,16.916626855287372,7.252302648678626,3.339071708338602,5.471534466019924,12.724897650989465,23.3050895509344,35.10930129234998,46.3309704062668,55.93598102092763,63.87870438733191,71.00398952691283,78.67159003067026,88.21713553144724,100.40760527122012,115.04844418109879,130.85622698887695,145.63839739337232,156.74045498619645,161.65272680729643,158.62984540476927,147.1743830958103,128.2696599620126,104.30537282682342,78.70787116328378,55.349204682865455,37.85294742507486,28.9329106869535,29.892058408633222,40.377006845577796,58.435609592127214,80.86979728879574,103.82225135545147,123.49148221340111,136.84310666719728,142.1805005962313,139.4583601313394,130.26730589409252,117.48023832398988,104.6216075283248,95.08448263857314,91.3621715379197,94.4684858052647,103.68789588929232,116.72718263408139,130.24767825571047,140.66309910954212,145.01636927131926,141.72066834749248,130.97523783827992,114.7426245664543,96.28324057164821,79.35803271840207,67.2996816286912,62.1916355729711,64.3698090381032,72.37887301479024,83.39460012441313,93.99849001206405,101.09528182990259,102.72523597140655,98.5525684258416,89.90162946187505,79.33800360962123,69.91766555468875,64.31792679874603,64.09358512584829,69.26249085550694,78.32838948283523,88.72345348641241,97.53480133234977,102.30229407282872,101.66053849940717,95.64928024130671,85.61733543664447,73.7652317437479,62.47562466073843,53.6379485146809,48.168679694613104,45.863640217434956,45.61460952104765,45.9100832344005,45.453835225574544,43.69961192727237,41.12665188136823,39.16028217622903,39.750756104014194,44.72953153964116,55.13396396477344,70.70754766056302,89.73844131688773,109.30637886568593,125.89350500488482,136.21041266061815,138.02440090976225,130.77005158426397,115.77546209829124,96.03561000634258,75.58082945346284,58.592089613378135,48.47807656280812,47.13641402043625,54.57192028337183,68.95286402393388,87.07709647410158,105.12202891596819,119.49047190342452,127.55188938406789,128.11640869389785,121.5542981464682,109.56468129383997,94.68025219347165,79.64892743991219,66.84786523581845,57.85972621794133,53.28625071146327,52.80728932915245,55.4329345804681,59.857509304691774,64.81398334225804,69.34486443863746,72.94192968906003,75.54925022076868,77.45948900292169,79.15336292219189,81.13380237892763,83.79323308995528,87.3318483220279,91.72566898904505,96.73200208408507,101.91887023008023,106.71178332749056,110.46008121619441,112.52954195551912,112.42369145134234,109.92329174337627,105.21599166864787,98.97407883063654,92.3356241095379,86.7582504775208,83.74485725566122,84.48056527035108,89.45803112058417,98.19135342544385,109.11644482692114,119.74366604760736,127.07185626114394,128.20404363853902,121.04254931503064,104.90341031142202,80.8899861436675,51.907412196061,22.275795335058856,-3.0068949443889905,-19.214099546943405,-22.855412891137217,-12.445949021598798,11.095119279273728,44.51482273024772,82.76211237113085,119.88448469016858,150.10368894202725,168.85272768178223,173.5690419759855,164.09491728140887,142.6216947727366,113.20848281055491,80.98830946312997,51.22806347741045,28.425014602177615,15.602085539141854,13.91413663794658,22.61129110280636,39.33688846987902,60.67973520947509,82.86183488687692,102.42834250366073,116.81586360406241,124.70530184530193,126.10967667733694,122.19856677801047,114.91034823702518,106.44290580301715,98.73557154308097,93.05508861669766,89.77478202545845,88.3927049615748,87.77937710193444,86.59074378361775,83.74007024516695,78.80513280534112,72.25958124731599,65.45895683792264,60.372806348884495,59.120100815520686,63.4183533613746,74.083109200255,90.70591783508137,111.59709363021467,134.01516394084388,154.63508165716425,170.15033844626885,177.8752892376535,176.21962378362613,164.94419181270644,145.1641162413895,119.12480984344363,89.82197880902528,60.557743989164194,34.51820755501802,14.42997282707312,2.316817085832178,-0.6531016948330104,5.746462182828954,20.761098631669736,42.66554749404271,68.84599812897548,95.99166739432421,120.42493673633903,138.56898932314067,147.50581519075052,145.53006774412466,132.5738960174043,110.37920968119175,82.33338899910704,52.956199479255154,27.113072970709283,9.108073937927921,1.8553059372762584,6.323221503305782,21.38936405992182,44.145651567057,70.58167823025084,96.47620319439027,118.27334146293335,133.72632577506556,142.15776361732307,144.29349861831224,141.74705587345494,136.32860066077106,129.3983921698092,121.46509208183079,112.14985001299475,100.52028360509068,85.67916895984219,67.40683215697308,46.63079727210911,25.54057427990864,7.268732723401549,-4.807865685588322,-7.969045437387391,-0.9999739842799509,15.272450085748677,37.943964482770205,62.55550989254419,84.07627758603293,98.11315490294692,102.03505419926259,95.7059548292802,81.61101826967715,64.31347089623827,49.35630039635805,41.87464411971899,45.26985653024894,60.29021215040036,84.76517608115307,114.07480788883984,142.2462232503087,163.40512948707732,173.21597241563572,169.94492161542925,154.87574699896462,131.9748369991112,106.89414666125354,85.5694423614853,72.77155083143903,70.97518582922831,79.82260385422313,96.30229316990867,115.57840536318007,132.24353724123796,141.6678401438005,141.105153319111,130.29241329967385,111.41890913704923,88.50751602452885,66.39630288433447,49.598365183464054,41.32915109592296,42.9256787623981,53.76263674170911,71.63182542271504,93.43304777731738,115.95751027895791,136.54422961157687,153.45160390698817,165.88836175345398,173.7578773415173,177.25471411624451,176.4875920610619,171.2803461754961,161.2307722587923,146.00996556550265,125.7928236339088,101.65266947378781,75.74817380139217,51.18175154864527,31.50200608675532,19.932302051564776,18.50176737956838,27.306277544536787,44.1183691458748,64.49617348925,82.42799085569204,91.41869385181653,85.80962645965664,62.05432948842385,19.666562644664456,-38.382488146667235,-105.92757829094667,-174.5029692859538,-234.7011147438251,-277.7330480898139,-296.8865107847516,-288.60338242183536,-252.9820520904344,-193.63262038962233,-116.94490137484479,-30.941753520530618,56.040052906585885,136.58499756397913,205.13391895841858,258.4846919397745,295.82564430993,318.36614007182845,328.6996213310039,330.0670400961037,325.67906222930543,318.2125476374955,309.53525109793884,300.6505946628191,291.8077169593527,282.700312820439,272.68235995338983,260.95323137852347,246.69714787425985,229.18965613133633,207.89714688975488,182.59053448489513,153.47465700387482,121.3094230399352,87.4785073048777,53.95688544639299,23.14341813977235,-2.4424298522494245,-20.5592801229944,-29.660540372957364,-29.231851889081515,-19.958309510836123,-3.6633615672615223,16.98558702305467,38.950818693990904,59.37453960990499,76.07932369239983,87.90147870216359,94.7806212153655,97.59085274880597,97.76536057490719,96.81924363052855,95.8998468901545,95.48325041150586,95.29280229941321,94.45297674497839,91.82684114041743,86.43610269226524,77.84236670866898,66.38185917303817,53.18848283161893,39.999195777924214,28.794385343725708,21.36802812262191,18.937556833054703,21.88851305820085,29.710391754516856,41.12924451164984,54.394080068028714,67.64067775080564,79.2451636516292,88.09150371779,93.70586435017934,96.24712084295962,96.37598281727284,95.047762420408,93.28155926206311,91.95329924692759,91.64568784307745,92.57125887963372,94.56989335084381,97.17233375458811,99.71593008503407,101.49578316135863,101.9312356350147,100.7229246239366,97.97087158985332,94.22205982637507,90.42109924817636,87.75229088341828,87.38539088934377,90.16612878497627,96.31816154981348,105.23643069047823,115.4455426251936,124.7678600435893,130.6983966862197,130.92800413285593,123.90711100100674,109.31489107609156,88.30405753420737,63.432399194582864,38.261709582859616,16.68715654378575,2.134178952528157,-3.1950111652413815,1.158226387960919,13.759639252129789,31.55778961890558,50.53641367876307,66.60027097996715,76.48897288732908,78.50085286884949,72.85153208312947,61.57928405141943,48.020493019906745,35.98474899622294,28.833111354079644,28.685528910566433,35.94871791835836,49.27304403170839,65.93790961364594,82.55826102419095,95.92758483751385,103.78422331746219,105.31438171294903,101.2780445928668,93.7431161859017,85.51186294211104,79.3967047096669,77.53208853441667,80.88989242059365,89.1051556633493,100.63476542520608,113.18747528602793,124.30069144295273,131.9127409153835,134.79325554117094,132.74170119288365,126.53035541266398,117.63384591094866,107.83587397226948,98.82369857491238,91.87008047941262,87.66664986163372,86.32446032166155,87.5111091613182,90.66161237769971,95.18956668280606,100.63626314564235,106.72303893643249,113.30621240202315,120.26452227387102,127.36746443993135,134.1754394812379,140.01010922524623,144.01077351474228,145.26702701147187,142.99688963615927,136.72802463760155,126.43967224253429,112.63336569046749,96.31703895137072,78.90584132804014,62.058248575843834,47.47587250225012,36.69782974851374,30.91712352927448,30.839294331469024,36.595020330264674,47.71076011411996,63.13619448016853,81.32419811116324,100.35775297556381,118.11731328263998,132.4803457378881,141.54157841649317,143.83746538537036,138.55279744697592,125.68267438328472,106.12091003267946,81.6486422131216,54.80543102409122,28.639765479265563,6.355322133045811,-9.109544081706119,-15.512535040519712,-11.679979614923258,2.2479261557129404,24.755589000987985,53.104343278290685,83.6926866660624,112.57881916373354,136.08492041102434,151.38023815796672,156.93690967663008,152.7705485896675,140.4150787139218,122.63098348925901,102.89793555000881,84.78558735862507,71.32057573361672,64.46814189728912,64.82294870227786,71.56111319855655,82.65352874418828,95.2907036022393,106.43163304223627,113.37096377449704,114.22211138278064,108.23638791032356,95.9134551833376,78.89803821348622,59.693895267200816,41.25241122325194,26.506953521984844,17.92519153683133,17.142298422481836,24.72175062417177,40.070760591688995,61.516681604907646,86.53122889772874,112.07156139961832,134.9931318561157,152.47909224923225,162.42729929139438,163.7396210832911,156.47025133656928,141.8091296329421,121.90118342280597,99.52781712930685,77.69915124829431,59.21989828794477,46.29541723031854,40.236926207684974,41.30776903801609,48.729454227857396,60.84140215827685,75.38612161689535,89.87459770865604,101.9769713971856,109.88117459320004,112.56665029122513,109.95101407299325,102.88381234115116,92.98259008702313,82.33091720367592,73.08306865186776,67.04159740011194,65.28680765495939,67.93619423732294,74.09419297734927,82.01841397088741,89.48313191955452,94.27354300350721,94.70691828543224,90.0604326229409,80.79763249651386,68.52606509117838,55.680541641527874,44.99475761404545,38.88134315077137,38.869764408473756,45.24338059460666,56.97063180668245,71.95167455495937,87.51964696104582,101.06780434637746,110.63922139925624,115.32578629244202,115.37580844831722,111.99102216685132,106.88102961872397,101.71119683440195,97.60871458316811,94.8719781807485,92.96598981499267,90.79920236255307,87.19108182923354,81.38017252277164,73.40818638923754,64.25132989464046,55.645571064282315,49.6456533163522,48.040697719674576,51.79703234197891,60.696685041678805,73.28781528500112,87.1760604660635,99.58858906691849,108.06371456253856,111.08117770309998,108.46221848253192,101.43020418837595,92.31369900533988,83.96879609288098,79.0697118895964,79.44720007745474,85.63655487041353,96.73813856272659,110.61151921038254,124.34273728006082,134.86439962212867,139.58367642575087,136.88612163266487,126.42592532914223,109.16964317069956,87.2147327923455,63.442180448604915,41.07869138752796,23.239965536461536,12.510737172049797,10.59898783506027,18.089165884984844,34.31469692299448,57.37070438080795,84.28643436876051,111.36625964820294,134.68421264538992,150.6822786233226,156.78543668785974,151.9193927385077,136.81263113089372,113.98994231638346,87.41938160545226,61.84826907165094,41.93888845180221,31.37088882771837,32.098197061418574,43.92521875347372,64.50358692718454,89.76074660866117,114.67687636854198,134.25051541705676,144.45385149715202,142.98492707962885,129.672848637043,106.47008863977335,77.05317224598593,46.129224698217655,18.59507754706556,-1.2896469537290276,-10.572475743893504,-8.020714850958488,5.76930071398272,28.558662924256545,56.8963597901792,86.71207272586784,113.9741986654969,135.3130151284339,148.51658255031234,152.82403614846277,148.96804426252245,138.95474453930137,125.61342311959463,111.99389058489349,100.72697040821572,93.48237894999197,90.64889411272723,91.32083538699342,93.60743964268094,95.20161457405061,94.07210940235477,89.09966024767616,80.47916512397339,69.76117947981542,59.4972428974618,52.56308953007774,51.330743027043304,56.91644299564251,68.7260740408182,84.4505653224836,100.54554177958786,113.09391591163647,118.8347036969113,116.0809813501778,105.2650855229535,88.93944272593141,71.20464170766199,56.69416991178053,49.373172673216345,51.46966247442372,62.83104862684547,80.89163412248263,101.27561757468021,118.88893130423337,129.21928707329937,129.50434477543513,119.46026866942356,101.37817764264176,79.56283040803916,59.26076016981292,45.35691781500231,41.174975546010174,47.6829240871964,63.29384814229476,84.29368170694434,105.76722477722076,122.77324821405206,131.46939503295462,129.91714560063994,118.39460080006204,99.17958392536896,75.90012447397201,52.64791376766166,33.08985436109874,19.787839510347627,13.860450736410332,15.01727848600885,21.898263048150984,32.582372447572546,45.10761673003453,57.867916345641724,69.81005397397051,80.42423282523478,89.58323353563398,97.32039438426928,103.63878896121375,108.41659164724507,111.42889574853426,112.46063010830024,111.45345248094478,108.62077095132493,104.48002469474943,99.78343500535608,95.36559496560922,91.95577397162806,90.01529843890584,89.65236617194304,90.64110251270874,92.53774460763249,94.85537967519157,97.23964571497213,99.58728909444604,102.06750556126632,105.03689920928188,108.8732430639907,113.78060760109784,119.63006908604235,125.89277636535391,131.69670800980592,136.0025340920552,137.85732928846886,136.65844521094516,132.35156573880198,125.50015019996225,117.1957361276668,108.82164440296006,101.72502380765276,96.88222962656711,94.6501601607814,94.67854026623556,96.01760871866792,97.40228275754689,97.64161181436114,96.00614359039103,92.49728087271092,87.90681313283633,83.6274389359557,81.24416065790074,82.00342085097289,86.3026811561012,93.3526828202016,101.13188032669055,106.68264682531064,106.70846855843133,98.34405625511634,79.91072438824837,51.45700814407098,14.926139186569486,-26.1195066682537,-67.17294380091097,-103.70262852046373,-132.09039785723314,-150.34358841366836,-158.38791988677,-157.85386390966448,-151.40484162240796,-141.78457619087084,-130.84672892079615,-118.84686790176193,-104.21647040259782,-83.91460048404804,-54.296170894264684,-12.288405617967971,43.429947454186774,111.57083127019241,187.95691225423795,265.937373428413,337.44287428078314,394.45823230312266,430.579529125818,442.2934487898065,429.6785308545628,396.3651116986213,348.7673605239157,294.7718823666056,242.18932660085287,197.31987061513348,163.9409303141415,142.9108183480689,132.4274010242387,128.82633149791187,127.68793351551726,124.97074921450196,117.91093764346509,105.50854457600785,88.53844470865492,69.14277146771997,50.1532087221336,34.33604208750273,23.745292300045573,19.317931428111823,20.76945748347256,26.770028359875024,35.32099072415377,44.220382120472316,51.50668570437911,55.79557313442313,56.46328894483483,53.670104790688626,48.24783694036359,41.49264137270321,34.90859399149438,29.943254301631278,27.748853353750558,28.995718814293014,33.75948229751267,41.49850615821335,51.130789077081225,61.20753608495498,70.16409621539269,76.61097545158196,79.61293774358022,78.89883295560115,74.95244927751436,68.95561082002175,62.58566618258233,57.70266083831752,55.98871663584103,58.61529926517602,66.00933855997096,77.76718476292974,92.73157966662066,109.20990637612091,125.28164306571479,139.12629782384235,149.30402351538294,154.93795873995325,155.7746944081392,152.1290975517093,144.7443915213567,134.61177278426743,122.79452304790769,110.2905794440428,97.95016957321792,86.44678016415021,76.28608011995357,67.83095253725331,61.3228121216022,56.887149901698294,54.521809987724836,54.076004641570925,55.233661175429916,57.515207940415046,60.30774204147411,62.926237354100486,64.70016749862252,65.07286295210474,63.69639501179252,60.503604221547164,55.74125164417766,49.9537542561103,43.91478528659125,38.51353199412898,34.6116138037117,32.89431585176014,33.74396552651799,37.161989298047445,42.75901228821557,49.8197382017137,57.43328628410201,64.66394906901215,70.72605044654043,75.1233074902651,77.71984681421651,78.72598365691081,78.60349051565892,77.91668920161712,77.17111588642899,76.68581185377563,76.53627861751599,76.58476589540635,76.58828397489262,76.34986389937133,75.86331385447411,75.40068398495018,75.50644924054485,76.88923492660679,80.23330640703533,85.97866835520199,94.13228830872924,104.16902104616442,115.059426564948,125.42866550542394,133.81504551810778,138.96885366873911,140.1197581311253,137.14785058604414,130.617561046807,121.66807429308113,111.7888865958916,102.53538887842568,95.24990219142217,90.84674240999226,89.69889739356547,91.63581691025257,96.03518617418358,101.97364264543398,108.39603595403014,114.26956122465775,118.70343379093553,121.03050844297111,120.85842063307494,118.10077054275102,112.9941787519024,106.09753013206439,98.2614610551135,90.55365598775431,84.13175861129875,80.07001739565156,79.16335674645613,81.74768838176412,87.58113658005466,95.82419432600786,105.1376201992861,113.88966049601095,120.43620124888625,123.41725678566559,122.00655721198525,116.0606359445564,106.13711648140956,93.38277885792957,79.3212294673151,65.59064472621068,53.68832819903321,44.77030290619546,39.53489178588586,38.195447896142475,40.526742744380414,45.95724975738735,53.67828565852848,62.748355693409515,72.18328828882743,81.03377578051568,88.45752628705424,93.7914659132054,96.62203400410883,96.84230712680714,94.67867853723291,90.6703858355519,85.59384327642015,80.33783695449011,75.75089203913035,72.49292886169854,70.92520369765668,71.06447990878239,72.61112424521222,75.04160309918144,77.73956105738483,80.13151601216877,81.7953716458244,82.52100138898288,82.31823838703446,81.38203814872556,80.03338249451386,78.65464990303855,77.63128241881785,77.30167083092135,77.9098366906966,79.55472166648968,82.13710807317227,85.31710558522205,88.50626011147106,90.92128280373421,91.71674327660939,90.19136792255657,86.03215392954867,79.53260273927725,71.70739403243107,64.235074566003,59.19539489817392,58.623197667324064,63.96214006240897,75.55034169085987,92.28872980896409,111.61956282264568,129.87823601288727,142.98805517006122,147.3691854183217,140.8567389022838,123.3937040022235,97.29562536583799,66.97347227854443,38.12945053318684,16.576694786157887,6.941291059588364,11.553420419689628,29.80702033740754,58.167148334966726,90.85357770305413,121.06494543913091,142.47157504056185,150.6323421163411,144.00160092489904,124.28504420640134,96.05627011086898,65.72090111400544,40.069640089423295,24.75717721457979,23.058131223413564,35.18145163435026,58.28944674845104,87.20093598220514,115.60039603802404,137.4637696582874,148.3716244439432,146.41812536718174,132.52791584341455,110.13532542539052,84.32658031401208,60.66163767360511,43.953051616898534,37.27384626811753,41.399806206035706,54.7827037686499,74.02706423933613,94.73318415843978,112.49722566827859,123.83911057997028,126.86158542563328,121.51843004391942,109.46602583909224,93.56727958494653,77.18821956088804,63.46113817276041,54.67883690533277,51.93792877045902,55.07980139673062,62.90367581266127,73.56621778613375,85.04940936720662,95.57868664952572,103.90332124969457,109.39955094530134,112.00948457931453,112.07018396086478,110.10719549495485,106.66194876854577,102.19689409776055,97.08629672600078,91.66698193250792,86.30331766780084,81.42017577539788,77.47566838761138,74.87480722469236,73.85438214345645,74.38714266870723,76.15231993881225,78.59914334842549,81.09642294480064,83.12663866469188,84.45965595325444,85.23946851870532,85.93997137720423,87.18707632197861,89.49231117134089,92.98094443032055,97.21169798481063,101.16778164903313,103.4523837350588,102.65844034363259,97.8212431554084,88.82308805277887,76.61686425961568,63.17411562511315,51.13506510669252,43.223850082812845,41.56740047209817,47.09720100486859,59.20528898448163,75.7681710389911,93.55830293755872,108.95769669078615,118.80132510318413,121.13524586793673,115.68904740108866,103.93301989623266,88.69843899474502,73.45595544904027,61.43962850016921,54.846865585566725,54.32476059323299,58.876276216658816,66.20621918889387,73.40850468869385,77.80522760783606,77.70943601078604,72.90718217165436,64.73306920383806,55.7246151161436,48.953393668458574,47.21413978324183,52.28529764760517,64.44884565870859,82.38281447849835,103.43914199398723,124.22097737691263,141.30355626353852,151.91886492881127,154.4489626671239,148.63602830833904,135.49781581572057,117.0112830672979,95.67451682444013,74.06717882044639,54.50422855767503,38.82899050784892,28.338081870973156,23.790876687342926,25.44194961196245,33.049012458911776,45.843241342965456,62.488722479687105,81.08627007289108,99.28140317489402,114.51279133819826,124.39222411907437,127.15456539683147,122.0749104304885,109.73595529917745,92.05007666243905,71.99441134307372,53.0902989671735,38.729797485447385,31.50035691191183,32.66834675652083,41.9481211635935,57.613333277067944,76.9204017980881,96.73412554251979,114.19555531832663,127.2662743007173,135.0230922879724,137.65081024706134,136.16646594503752,131.98130211987586,126.4451367272543,120.51133835754749,114.61231572782779,108.7608550711713,102.81573524488043,96.79542741307844,91.10839941573788,86.59812137580751,84.36600690198811,85.41551628831266,90.22979539188994,98.43025781832542,108.65156859500027,118.71071283800445,126.06036247393709,128.42535029328312,124.45404930066368,114.1957462870074,99.24975726852821,82.5146201851586,67.57433267999396,57.86262465903122,55.81555675138645,62.23588381807084,76.04426169626869,94.49402802179956,113.80433331254274,130.0543080142406,140.10981356490157,142.34404098721333,136.96731295113872,125.88495234835257,112.12700014328156,99.0055558383773,89.22454042015957,84.1746774803576,83.59200110705055,85.65786501213357,87.49998913316128,85.95045446370607,78.35515168711922,63.22508649977249,40.57236207348836,11.865538939328571,-20.356084284416845,-53.08146104096409,-83.46427087156063,-109.32433323261456,-129.3928063586865,-143.262288651469,-151.09164561260636,-153.1846538956411,-149.59264031083146,-139.87686269406876,-123.11234900914242,-98.13846953048315,-63.985357787155934,-20.351338389426484,32.010529214204524,91.11492403965721,153.837505652012,216.26799753989124,274.2443834880353,323.94499719409697,362.40509612488665,387.850097499696,399.79016713075123,398.8840307751956,386.6361321695338,365.0249273878358,336.16365568209426,302.0693542092563,264.57086952712467,225.3370053382595,185.96707589066878,148.06975866905316,113.26637979255385,83.08775307791325,58.778101083799825,41.06085369958207,29.945540421259498,24.653567373134813,23.713015252664963,25.225359529169097,27.254524617973683,28.246277995529876,27.36788263972834,24.670787046123777,21.021692260979044,17.80882001855719,16.494029489995096,18.129389108294728,22.974013485389225,30.326815507019234,38.6365553669735,45.87585747369337,50.090418928750886,49.97946957298715,45.34565324473276,37.278267283818586,27.999058645231326,20.38799132114241,17.29454692052573,20.804076514931104,31.649819720020385,48.93191150334743,70.23092242411761,92.1035429032296,110.84815477710639,123.35478213412351,127.82775767329885,124.19861030321742,114.12380974027539,100.56778653820265,87.07765861134837,76.93444776876314,72.3951215365205,74.21293864186343,81.54797768321806,92.27586759029381,103.59942176896512,112.79229136497385,117.87616434312827,118.05935807663236,113.83621465599501,106.74232660067247,98.85357634147186,92.18133605157338,88.13558290079935,87.19845965381437,88.88353533402295,91.97129340788833,94.93390969505482,96.41414562360897,95.6161398657318,92.50011206667196,87.7366642566411,82.4490420326606,77.83243437202972,74.7704937666314,73.56381245568488,73.84621701232078,74.7059112710344,74.96789419317807,73.54936408676124,69.7833048840509,63.620131159542936,55.65671031153439,46.993510127005415,38.96805493204887,32.843110268872984,29.533723848878278,29.439001404798354,32.409582357502416,37.84219452934983,44.860145690859106,52.52171480416781,60.00024218568284,66.69721044081882,72.27519055417929,76.62245185838752,79.77762382835563,81.84745219415308,82.9438404762189,83.15276557683048,82.53311928237542,81.13373521118594,79.01448643984796,76.26198515169163,72.99844059610432,69.38938080340324,65.65799492783091,62.10951420492411,59.15987450957229,57.35317468413434,57.34701227938039,59.84768475725213,65.48952856246957,74.67163102005244,87.3851726492259,103.07841197359804,120.6081266369783,138.31289999962544,154.21702716951546,166.34008918941984,173.05549117455692,173.4210917004372,167.40310476505678,155.93313559596194,140.7738750983459,124.21311133959178,108.64712342187033,96.14221602737379,88.06984882914435,84.89401063313291,86.15370279476349,90.63735935251556,96.70168039393408,102.65551277587362,107.11792528112167,109.27063354946736,108.95498326191692,106.60417629825372,103.04207599857071,99.21022808431158,95.8977689172125,93.54254904409513,92.1484966248608,91.33109352581,90.46900570249002,88.91389927893363,86.19837010403585,82.18626584954191,77.12807481199188,71.61107153681344,66.42200380909244,62.3620632122314,60.06410981919102,59.858877288006575,61.721354653283115,65.30564038138212,70.05257846648419,75.33577716755043,80.6032695912426,85.47584871598634,89.7776184064799,93.49560168948989,96.68680846523256,99.36745294093515,101.4247202591785,102.58537596330457,102.45856972661062,100.64745907183381,96.90161538500782,91.26646462966735,84.18194813243691,76.49189608943553,69.34659403534965,64.00832252742569,61.59654153100771,62.82828354951815,67.81526482371461,75.97019812597189,86.0522114855805,96.35115887549398,104.97954105007076,110.21660519766598,110.83723583349703,106.36094291130983,97.17244521151851,84.49065926238795,70.19152577092876,56.51582388508126,45.71142357656627,39.66805787109574,39.601648465434636,45.83607278383487,57.71598252371504,73.6667861693225,91.39913973884627,108.23595387593936,121.52133861268831,129.05439568450186,129.4794662724412,122.56166155058871,109.28593371457518,91.74168983621368,72.79141047739704,55.565828437865335,42.87111750268573,36.62421344731036,37.4404964542109,44.47778643970627,55.59236188265109,67.79480667999616,77.92091026256044,83.37372663227977,82.76426964704741,76.29053070472166,65.74834314186195,54.152441674533975,45.04179636610458,41.626078967872566,45.97689230593704,58.464626397364924,77.5871716414822,100.24294577856124,122.3908398997447,139.9420933533641,149.66971042567477,149.91604952714766,140.93037828512948,124.76237034038961,104.74966037979817,84.7379285911781,68.23392213202915,57.699760458021466,54.14978198105692,57.12368061264434,65.00697322793012,75.58050218489583,86.62946003850736,96.44135911459308,104.06999270996879,109.32239004279913,112.51307521666195,114.09855972381085,114.33472790789585,113.08324375458628,109.83661008265464,103.95355680435003,95.02210121787554,83.21986153069267,69.53548833668385,55.75312129848022,44.172555559784364,37.11991404361524,36.37224366681555,42.65372621330969,55.35016112632035,72.53454035855339,91.31486898667023,108.42866171079979,120.94147325992861,126.87770756330701,125.62902339584326,118.0432862878481,106.17928608505659,92.79655321385543,80.7129441106499,72.1896003446616,68.48755587538736,69.68922682309457,74.80651498783132,82.1252326975654,89.6819049778736,95.74603591952673,99.19193108866583,99.68304371524891,97.6458772509546,94.06402781277643,90.16259330190582,87.07047210917558,85.5420809345637,85.79543765552049,87.48975444561367,89.83208567770473,91.77764286631655,92.27513025184393,90.50742417457755,86.08541673790207,79.16489037520677,70.46929195672577,61.21349552972601,52.93539554044986,47.253910467193855,45.58481244390673,48.85776351346326,57.28623219346814,70.242340209658,86.27735965347371,103.3047517439768,118.9290652076457,130.86772452829882,137.38336166360352,137.6314228854291,131.8376283721472,121.25319257646288,107.88620146860289,94.06307916324052,81.92017664940971,72.94811695065799,67.70297300860305,65.75867186417318,65.91376414468948,66.59824742641798,66.37141375787975,64.37485872734125,60.614775476429124,55.992144609280324,52.06737910675411,50.61887707306815,53.11274073490695,60.22771571489543,71.56737233349614,85.64401267797106,100.14832428823006,112.44432257081381,120.17063931127183,121.80139308217102,117.02970188230016,106.88053646669188,93.525263451955,79.84052050806031,68.8116298415005,62.91276894311761,63.59656360319302,70.9971412568262,83.90158574890927,99.98782484498777,116.2747450917162,129.69270424915862,137.66483401482122,138.59239866036316,132.15796748739328,119.39340155012665,102.49979077274362,84.4481180461628,68.42702603049511,57.23344376535728,52.7172305026465,55.38892939264657,64.27731226678299,77.08165642313777,90.60741496658045,101.41299045336926,106.5429003994938,104.19233753435859,94.15048449985251,77.90907881589189,58.3927213448108,39.35433058509542,24.562166642695395,16.961934565622652,18.01201149246638,27.354598645833008,42.907381272032744,61.35727525801929,78.93660815972692,92.28977505091261,99.21560407219106,99.10430852809398,92.96968598678245,83.08518115332242,72.3365787250452,63.47537792500904,58.47560855978417,58.158225007957995,62.16336362464408,69.246790843285,77.78397984366815,86.31056312092932,93.92738486119052,100.45089619921914,106.27791660863134,112.02994171161757,118.11553515118783,124.37684011147532,129.95878358440098,133.46568941529193,133.37296276799069,128.57181603802394,118.87191669063944,105.2879604534565,89.99286252870021,75.91683934589032,66.07887659598576,62.8232627048073,67.17160618952707,78.47814816510605,94.49810033613798,111.86731826370584,126.87859324074273,136.35740030234132,138.4117196358375,132.864103178326,121.25944472805358,106.45455838978084,91.903710065314,80.82854450719555,75.48213272533323,76.68209466715902,83.70920646171496,94.56927907710883,106.52592044192495,116.75299406536601,122.94200780225273,123.72996058762499,118.87472496356031,109.17720921353025,96.21095298723881,81.95472513928993,68.42616801705404,57.38918120752287,50.16705710830415,47.553160377461566,49.78486317396445,56.54138210125679,66.9408617976909,79.53832173070363,92.35144393261976,102.95469560975596,108.67665523271782,106.91141705230558,95.5191369487909,73.25486138024941,40.14030975687751,-2.3107122851875124,-51.08317510829076,-101.89928445368453,-149.68640824932834,-189.20894330126714,-215.76344334917184,-225.82172324259537,-217.5149122039658,-190.8797427797207,-147.83030746914042,-91.86506056680057,-27.561718379139943,40.055045318607256,106.17075646616999,166.75992020060673,218.9983097371135,261.44925493654085,294.0030056176766,317.59095399282177,333.73750605527255,344.044181581226,349.71620126008963,351.2364478479814,348.2636844293163,339.78473947253264,324.4925024584626,301.30519181995953,269.90159251757785,231.13320433569655,187.19366022031468,141.47659140181958,98.12484515578706,61.35030049680713,34.66492113746955,20.19374623742011,18.230078271281698,27.142601159829187,43.66536479872424,63.5134003865638,82.19144971229069,95.81984398688445,101.8009863055998,99.19188467607084,88.72112334970564,72.4734320586867,53.339358183060355,34.373493097543026,18.211695782763044,6.666855682198449,0.5649115780091691,-0.1843423456334546,3.655212638191067,10.963875714778313,20.5610423208593,31.40500464980556,42.669085384303976,53.71150587673962,63.98961865347177,72.98075435405495,80.1595344697388,85.05146507816957,87.34639476198161,87.02618467572914,84.44905398044183,80.34295139179112,75.68879293386338,71.51225595327173,68.63705769424553,67.47195217837152,67.90057830981716,69.31757951743637,70.81322002702845,71.46372900409798,70.64971213448472,68.31066920077525,65.05544418437019,62.083892355398696,60.92494202335584,63.047151884498874,69.43583916245336,80.24533655697559,94.62150098661559,110.75127232741794,126.14251775793623,138.08194031755772,144.17529795702322,142.85309947763736,133.73108686062076,117.74614654834112,97.03698268704592,74.59309654417011,53.743060360200026,37.583623585388935,28.45923001325874,27.58667799661499,34.886850411222845,49.04263648425023,67.75912738237052,88.1672809412447,107.29160425018654,122.49821786614825,131.85116165471493,134.32777475000373,129.87303088122027,119.30195905674654,104.08352986860561,86.05532831866378,67.12405575232593,49.00264261666689,33.02230288843412,20.03986464520153,10.440973584659226,4.221593757830505,1.1171273063048743,0.742556782390758,2.7092316250741844,6.693732995053946,12.449237177979743,19.766573635575124,28.406473560645225,38.032668170063744,48.17542917397757,58.24601347550279,67.60700123112076,75.6851496552496,82.09785763128758,86.7561026315557,89.90900243713547,92.10816888609466,94.09104054199113,96.60563334082602,100.21821632583861,105.15421307625974,111.2177268394383,117.8165262315804,124.09189357296272,129.12347244634046,132.15654964940032,132.79057886061605,131.07610618357,127.49150573232878,122.80480562367966,117.8595980541249,113.34761395400103,109.63630885399861,106.70505596546461,104.21140069406381,101.66865745805309,98.67937816844768,95.14805526637436,91.39787780884693,88.14202169491298,86.30319646847953,86.72399464094788,89.85006900226064,95.48547500185539,102.70756039242099,109.98896440756342,115.51648857095968,117.63681340351958,115.3149389754866,108.47703203561802,98.13112966915799,86.2131769291117,75.17814103558416,67.42720255037646,64.71183610996187,67.66892570451486,75.61296833938069,86.64783565469003,98.07843506659192,107.0240224470822,111.08142962943832,108.87317145916609,100.34608969326311,86.75246969452994,70.32926327179459,53.768542798872325,39.62279027238442,29.798389187927288,25.257821122791444,25.986499952595434,31.202841080121313,39.72277735143294,50.35205259366768,62.181330574780254,74.69900022262846,87.70151849573627,101.05096053547854,114.38237905194116,126.88314540290885,137.24610674278563,143.8437712916906,145.09801618050986,139.95083548948043,128.29794789472703,111.24309389377926,91.06981876684065,70.90011633120187,54.096288400638,43.539365996416414,40.962026941781176,46.512254610065156,58.674013839436256,74.58461693501569,90.68703510021567,103.56563983299628,110.76040789163922,111.3527152894529,106.16775845514132,97.5326793294574,88.64220959996334,82.68672054798112,81.96365535054191,87.2044941723578,97.3011764213005,109.51881339166356,120.15902031211168,125.52067704027628,122.92258662644505,111.526818424912,92.74100690017231,70.07434453766814,48.45303372935734,33.1351598154093,28.469007838007116,36.78674699824616,57.70399733417929,88.00882465280827,122.19081274578913,153.51319063215652,175.40323058756908,182.85882252433368,173.56045842194231,148.44011276131548,111.57704335896213,69.43781436684338,29.620001839870426,-0.6358471520688229,-15.856198494354073,-13.379476631217647,6.167493421160098,39.04125438870183,79.14636772546646,119.22064831304549,152.19373289011108,172.4514623940035,176.77366223696563,164.79104049467935,138.909345376293,103.75213021895829,65.25743732577905,29.61414280890982,2.2348760188978485,-13.063060248384447,-14.550099618190025,-2.6987689355551634,20.06346226251217,49.888805468735114,82.21849234728617,112.53765546763164,137.0520281983631,153.1869532207473,159.84634573233294,157.41302152528888,147.51494488289674,132.61806259820116,115.5303717154888,98.9100343474128,84.86210267699799,74.68540584949238,68.79817797561513,66.8346052021587,67.87195305941215,70.72596746716991,74.24494697428719,77.54102656938329,80.11822634421425,81.88502731793072,83.06749203739292,84.06024678855329,85.26258902666471,86.94415372206886,89.17048796476452,91.79890247670218,94.53476555979967,97.02329237853657,98.9460015729236,100.09422287397149,100.40292838523261,99.94208391924396,98.87550441653019,97.4048792271454,95.71758234294064,93.95176995226258,92.18378873701118,90.43429899844398,88.68404934076044,86.8894957388615,84.99236270081329,82.9235660893914,80.6076276835002,77.97611720204895,74.9960805475366,71.71247558872629,68.29454188639214,65.06855142457887,62.51694087438423,61.22873917151598,61.79843498895815,64.68685437918043,70.07400363813369,77.74404111792855,87.04230578636741,96.9317650281256,106.15311324357145,113.46400864342927,117.90693133939354,119.03963231866332,117.06309398311427,112.80164507665401,107.5247101657589,102.64184572388379,99.34069216276326,98.2601906029955,99.29080699665923,101.56713262533961,103.67104789663686,104.00729792572729,101.26207979739328,94.8248345657021,85.0534398348746,73.29650673227707,61.64639459597926,52.46826833692705,47.815067759550445,48.87678733358376,55.613141607028965,66.67851863060584,79.67608160035923,91.69200579296192,99.98420592511586,102.65372471013634,99.12537800642308,90.30910608938252,78.39398521626995,66.32218134280147,57.07442208045093,52.94875398268613,55.01634937318302,62.891071588237004,74.86607979893667,88.37371717080157,100.64107224541205,109.36561657564307,113.23579967160471,112.169583069153,107.22470332917918,100.22506264779697,93.22210050359149,87.94803554107625,85.41020701262767,85.72633732054823,88.22541557530137,91.76069223709568,95.12335621244644,97.42340646862512,98.32322771547979,98.06202063141433,97.27817839277766,96.70051788812135,96.81863164499448,97.64645645304519,98.6610393314484,98.94134889305258,97.46745371426421,93.48846937373175,86.84372956867654,78.1327321971268,68.6718153937414,60.236698937289574,54.65200380640763,53.33403282379132,56.90866741227548,65.00828853834474,76.30556481473839,88.78055765308946,100.15780065157495,108.40698948234721,112.18597985234535,111.1204419748913,105.85610682828445,97.8755715393134,89.12826412977937,81.56495131145766,76.68808966043999,75.22235715986736,76.97854672282091,80.93702845107659,85.52548402786229,89.02142100340389,89.98303522945059,87.60738488025315,81.93355633508351,73.84528145595989,64.87403577138653,56.84937933153941,51.47784019477571,49.947393016598625,52.647850160941566,59.07018543213189,67.90625928694453,77.32426464739227,85.35567546387318,90.30569774358499,91.0966520985541,87.47279599609124,80.03015299882676,70.07676976477099,59.36642197618776,49.772950236477456,42.977615825508146,40.22843573464061,42.203832554034385,48.9824213288291,60.095842850905335,74.62946547382293,91.33853038693054,108.76202246943184,125.33512088708684,139.51478769930202,149.93472641041254,155.5927524559852,156.05020459716422,151.59758503413352,143.3252694635399,133.04226454074697,123.01351854871734,115.53345849078067,112.40784425259986,114.4611078100982,121.2051872299745,130.78759540651308,140.27994356493474,146.28460212124753,145.74710227957885,136.79081282962727,119.36085962271233,95.48950319848767,69.07370432767851,45.170930017683375,28.943057002415493,24.477952751487173,33.765568277052175,56.08471554708698,87.97018207383688,123.79658532674969,156.86862436661576,180.78358281798546,190.7632076400903,184.65565151688926,163.38403777553359,130.74626625988137,92.61902364020803,55.75145325308399,26.41815726102516,9.219555272919466,6.269094786183629,16.907299543600338,37.95948254663636,64.43849121285221,90.51251691438968,110.52633761499902,119.88337975146582,115.65469623292628,96.85822420688889,64.4263722871682,20.93352915197591,-29.821143805654028,-83.28565799156979,-134.61725194664552,-179.10166672405603,-212.52251158820687,-231.48484466636228,-233.69297383372069,-218.16807740998814,-185.3759075121347,-137.2277152896936,-76.92526228729758,-8.64353028711687,62.922434452154455,133.08672628118424,197.69445447754967,253.54747912169756,298.6608127112397,332.3102944542978,354.8760271715517,367.52874836816335,371.836976632402,369.38402794337196,361.47373626864004,348.9754393205473,332.32098896334236,311.62931198014377,286.90681828559826,258.2609722870005,226.0704859166867,191.07546129719648,154.37720472245044,117.36228913536013,81.58143188164453,48.617622982008044,19.970060013059168,-3.035090197213266,-19.31269067549012,-28.081898449070245,-28.94210942805491,-21.969051767351964,-7.820606500811623,12.177261121179566,36.007401349902665,61.04466336312922,84.27368498265533,102.6399536843753,113.495412314179,115.0641694576043,106.83104125802949,89.75421814434955,66.22743535133381,39.764338211004066,14.438638461411273,-5.825463525279228,-17.973328926569256,-20.395092318699746,-13.22127251315087,1.7410302950510939,21.43227982648897,42.24082405621406,60.82478140875042,74.86408148324912,83.55940641564494,87.74896972138335,89.60361428906148,91.96504169381011,97.48534585173407,107.78444749171183,122.84811246655931,140.8390243577854,158.39630265512506,171.3773608478236,175.8796363852445,169.2986222126672,151.15474557310642,123.46424635842183,90.53040235141333,58.16845189860292,32.517576826043275,18.7015588818584,19.648109865322006,35.35121087434829,62.76544288129803,96.37713012691367,129.33872069037213,154.91830325988713,167.93859981010758,165.87854053231555,149.3870234037541,122.0941773885629,89.76831375927384,59.01726577454035,35.835415681481436,24.327920353635818,25.895768114743824,39.051836436532234,59.88788476221844,83.061842851818,103.0597321047389,115.43335798599998,117.73352443169344,109.94187163067282,94.32967409769688,74.80736431208355,55.941947416396104,41.88491194092333,35.45870439460093,37.59748091331859,47.24416697102286,61.69546074460983,77.2864701877421,90.23916035441086,97.47679820785532,97.2308852314031,89.32797062105587,75.1236243448221,57.12994781829132,38.443699549495925,22.112976433973177,10.578101985185162,5.2914591606887305,6.57171651656801,13.69291151334027,25.16082948117455,39.09676201663272,53.63723807475011,67.26661391097669,79.02408108417018,88.55996766180252,96.05112836798328,102.01441659196573,107.07503474461609,111.75080574068654,116.30391843174647,120.69113184869413,124.61675391955423,127.66609723992843,129.47662273063352,129.89468809028617,129.07015068644913,127.45824477779234,125.7239795815376,124.57250650320937,124.55147778754707,125.88201007639977,128.36959287090673,131.42595288814587,134.20226129316103,135.8016598982933,135.5143496632835,133.00900791951207,128.42410764130491,122.32974716336359,115.5679995462634,109.01633408225008,103.34383341528107,98.834735906014,95.33617689954077,92.35060726362174,89.24872908231097,85.53884135236291,81.10620513879826,76.33920864591174,72.08845538437131,69.4532323297663,69.44367940579423,72.61049613167246,78.75326623091735,86.80629921237995,94.95862696281935,101.00267271144844,102.84107280005531,99.03101626808552,89.22540532090854,74.38712967850267,56.70375092907258,39.202653017164124,25.142754963803014,17.318232778800116,17.43649845251567,25.719665166869937,40.8284345596333,60.1321160780345,80.26680613183886,97.85580531240812,110.22821027333954,115.97242133365631,115.20002514307893,109.46282395276323,101.34513121570204,93.82697171643287,89.56453647064134,90.25179640541393,96.20800742466197,106.28505234018903,118.11756681796392,128.66279532591506,134.91244018880582,134.61885743491763,126.87160205296775,112.3890546827023,93.44879235968813,73.45786961060045,56.24447691425467,45.21843793416757,42.58451828548979,48.78973127459313,62.342063429450214,80.06027206209528,97.71851717448443,110.95626557993268,116.25600226500092,111.76576556640737,97.76997868661111,76.68688571804809,52.57843765952582,30.274173483976725,14.30599068521062,7.900801478633431,12.269030365105749,26.358460451787437,47.13132082844177,70.29504052995287,91.30623867095905,106.40229754067258,113.41185045871183,112.1560481076677,104.3596905056076,93.11663883122989,82.0638312239828,74.4838173159307,72.5609536781671,76.96253269480205,86.81990291642416,100.07557464204291,114.07043808820076,126.19583704617175,134.43858684987848,137.69843557620075,135.8372580370198,129.501251155037,119.81606464705519,108.07397239152438,95.50975156737198,83.20910692346312,72.13167205619368,63.182895220185216,57.25247361559622,55.15697182658749,57.47237765774878,64.30013577013011,75.05494172976537,88.37573570562348,102.23539641144352,114.26578840088516,122.2417417969085,124.60497147012192,120.87950840923087,111.84687520863707,99.40968872933435,86.16012879599799,74.75804775443466,67.28435432318425,64.74842371246609,66.88778911706169,72.31523007921969,78.96716074300964,84.71908864991471,87.98581275706121,88.13146489131385,85.57461506593668,81.56876296152228,77.73792596120813,75.52048399906911,75.69893789752916,78.1615502876544,81.96477072931367,85.66778943183809,87.82375046990846,87.46381228662376,84.41549224851485,79.35345044485055,73.57017224092901,68.54679836571124,65.47033465113917,64.86106142640799,66.43721680040942,69.26454216628638,72.14179622762944,74.09124304994506,74.78266864097158,74.73482846234054,75.20617436182508,77.78667371716048,83.80380159861983,93.7260080179053,106.76275044938895,120.81437725367893,132.82892442329867,139.50372717640158,138.1618089342215,127.56905347439961,108.4581384677446,83.59165276474876,57.312775149982656,34.666801403780354,20.29368052621588,17.358833291539217,26.787960261591707,47.00096063400237,74.21874237983026,103.27576390712649,128.7471510976983,146.12337483980556,152.75644591631496,148.3606586990669,134.96174838588837,116.3224582327632,96.99630835861005,81.24465622315566,72.07623414151206,70.62936848160673,76.02696851111683,85.7169076535141,96.1950057598897,103.92176556931294,106.2067667499973,101.85239967065533,91.41474332527083,77.03559994067886,61.90203320412379,49.47385021391836,42.66684141354247,43.1811866155409,51.12270609926249,64.99154004820926,82.02707642266209,98.81949551942216,112.0442918911925,119.15684957331501,118.9012528399459,111.53456761453698,98.73260622044604,83.21057732763653,68.14782689690743,56.54005144600384,50.60984344650941,51.38824378840444,58.5417602835127,70.46980322092817,84.6461837365655,98.13427380767402,108.17529111234629,112.73754754110247,110.92220643316485,103.14745283141328,91.07299757383575,77.27526224415931,64.7318742145255,56.21359336896569,53.704515862144966,57.97117619579672,68.37598178273136,82.9833756006951,98.94622565413728,113.09791103327431,122.62615312600317,125.68078602697416,121.7767181136733,111.89542107332166,98.25562107481906,83.80106500541001,71.52174601522505,63.767711059038824,61.71922469571263,65.14151293984979,72.48415128480066,81.30064787381177,88.88462032497557,92.96454980072566,92.2845400113819,86.92680911573488,78.2964420401865,68.77311136330759,61.11692234059523,57.775289426463246,60.26012740307158,68.74513445921264,81.97719388100475,97.51935339220319,112.26458734310211,123.09876522262962,127.56167546382056,124.36153627556138,113.63742968472138,96.92419923298655,76.8399429332297,56.57270753709982,39.27859251747166,27.51310323068954,22.801929549430223,25.42263375861874,34.42399421246447,47.86439079406046,63.212913215312035,77.8321028355727,89.45192161432385,96.5508520366625,98.57971742482182,95.99362289381982,90.0927683156453,82.7082603519423,75.79854431908777,71.04009980514114,69.49759879739803,71.4429544118954,76.36042848590365,83.13311793704607,90.36343877318208,96.74709518076608,101.4059395774085,104.09462622335806,105.22822727522998,105.72519987066376,106.71018974570929,109.16014433684794,113.59342849572778,119.89011130319714,127.29447810823072,134.59845778252935,140.45230076918799,143.71200874467232,143.7232721358497,140.462115706704,134.4971692364699,126.79384154220156,118.42912665838857,110.31183190925043,102.99819965828931,96.65810348257327,91.19370332062473,86.45790115871779,82.48277413448557,79.62179177667417,78.53730301700492,80.01881102187573,84.68046538125672,92.63683652311812,103.27589546163419,115.2281815389417,126.57494967199229,135.2618131022169,139.61185243993694,138.7877018724508,133.05293636017248,123.73208590042073,112.85416532793838,102.5619930007482,94.44868680437718,89.01758146721447,85.43822164471499,81.69295727041622,75.09679076339802,63.05989127304864,43.882492497253054,17.351611338451846,-15.042530529692112,-50.34734041595048,-84.79025929120934,-114.646459848492,-137.0839274083933,-150.7391631877285,-155.85291322175024,-153.92578988898237,-147.00053744107117,-136.7965643859062,-123.97574644760248,-107.78759802022705,-86.23282799506967,-56.727304721572544,-17.089516999209927,33.43791269527463,93.45216425359855,159.19425785844484,225.003103706098,284.34492081271515,331.17189804652253,361.2565828148675,373.13868341287844,368.41520239571463,351.2785068731789,327.41276312631203,302.53852082200325,280.9964762740288,264.7541644944937,253.10421653296262,243.13079934889942,230.8059313287896,212.3999831166548,185.80180731146098,151.36857416052,112.05769633447666,72.79549631257431,39.25261508668255,16.363879603239273,7.003186237942838,11.181660461697684,25.99241743778878,46.31881079582847,66.1134734518025,79.9010991631245,84.101444691716,77.82444470137249,62.939754196402504,43.424818853561234,24.191733459295293,9.729009855472233,2.934196457635631,4.447657795705353,12.648461952665503,24.283710866368246,35.52705974112307,43.14931118641586,45.463249910925,42.779767568334115,37.25852765196051,32.21141177189004,31.07046559828866,36.32207713678362,48.712320160590615,66.94627062799591,87.9623897361926,107.70229777825246,122.16167298586527,128.43544149096397,125.47785567328779,114.38064314190157,98.10504514064762,80.7488361222969,66.54787576071499,58.87299508438486,59.47376819631551,68.14663991499269,82.88883210279933,100.47392975992665,117.28313212918586,130.17257523200672,137.16235878691168,137.79165743125654,133.07754631071737,125.11709148239986,116.45646010441675,109.39794186914574,105.41773027014706,104.82744826842926,106.74446728107546,109.35901730514261,110.41876351399078,107.80812501563575,100.08783446612027,86.87815115382273,69.01002861620354,48.42061757532682,27.82142095295463,10.209185354568387,-1.684927275873216,-5.905339447250921,-1.6494817558904291,10.554200106444965,28.8998029685157,50.58205362108854,72.25381704374952,90.58607921227876,102.8333466004522,107.30307483782212,103.6413852869419,92.878265694205,77.21950911400889,59.621914103888095,43.23310734702097,30.807214626557773,24.21493442228447,24.14792965453476,30.075719031308974,40.457240678555436,53.1515482970957,65.927158069851,76.94854947296669,85.12693362955501,90.25912776277224,92.93369788294089,94.2434800648637,95.39215768698406,97.30717707486167,100.36529536798861,104.30241726791085,108.32590541170082,111.38998557381983,112.54960082572507,111.28717174547388,107.71626941531932,102.60291203862424,97.19824056866406,92.93064559400426,91.04497829404959,92.29042081587012,96.74293605549754,103.80792665217007,112.39590307380018,121.21429252572383,129.08664253646072,135.2055776171234,139.24940773373675,141.33656801698868,141.84379558289598,141.15707803977108,139.44552899873045,136.5410330499565,131.97219312305867,125.15033827569272,115.65353156525345,103.51759162665331,89.4333145384343,74.77035987520878,61.39537501424029,51.311923322721455,46.205192003244996,47.00890759298607,53.61411221992142,64.8081663690572,78.47490827733714,92.01905539859274,102.9178580058402,109.26793844000456,110.1942680516828,106.02227016419735,98.17343234624954,88.81367221297373,80.34355109453334,74.85494502840227,73.6812932119796,77.13934692270716,84.50848985401873,94.23434906166324,104.29229443139924,112.61647222389313,117.49642493921955,117.86430056330813,113.432312200636,104.68028046535048,92.72513011812595,79.12072657990873,65.63561368667277,54.04235656809744,45.93327067168371,42.56204136214737,44.70502365593355,52.541431927243124,65.56455000564391,82.5492899745939,101.60713548472151,120.35252592923263,136.18379520701745,146.6519752314442,149.86046576895367,144.81824040032205,131.66684316787158,111.72045661705609,87.2955737325567,61.35349827430183,37.02278144374853,17.097553247443685,3.613480262030025,-2.4161849744339565,-1.0613003303269803,6.6627127814425435,19.08114287765134,34.216733581071,50.13221641377342,65.19011798885309,78.19347319131576,88.40873375930883,95.50355227663324,99.44853282422667,100.42988394109231,98.8019540378285,95.08242974734137,89.96862900419754,84.33975595406206,79.21203216940039,75.63032539470345,74.50548240847978,76.43168364156479,81.53347870175254,89.39174176486907,99.08046861700272,109.31723765734966,118.69788493765353,125.96072726600154,130.21578901067912,131.08334550616726,128.7113125969177,123.67482237802979,116.79368722338975,108.92410833791895,100.78406331375334,92.85681894125314,85.3892752134336,78.47010346545994,72.14792425342092,66.5393469678965,61.88380902578048,58.52378342569693,56.81740641374614,57.01596174983394,59.15207588854513,62.98151061997299,68.00323473858228,73.55517792608502,78.95669671674233,83.65235948704593,87.31153698061149,89.85410138501074,91.39950762866017,92.16427276229845,92.35158396056313,92.0789645988009,91.37415685787029,90.24076315467721,88.76388256289255,87.20440204177446,86.02738969554262,85.82914480446254,87.16393382396073,90.31351570617647,95.07550521629122,100.6566231808251,105.73721755697383,108.72658616968579,108.16710029230917,103.1877254600889,93.87427093738582,81.428585184565,68.03515870369539,56.43162382771564,49.26830256659633,48.41477163668602,54.404503832363545,66.18778489800115,81.28996408365526,96.36401732025323,108.0126982593811,113.66975449720668,112.29890823513148,104.70624617549603,93.35977545283241,81.7439542212851,73.41026148578997,70.9783611488149,75.36756333090838,85.4843554381922,98.47135690308565,110.46771558184204,117.68418914481147,117.5000213542193,109.27233401050769,94.61940037501545,77.07922164121234,61.21666821287848,51.40862895002827,50.632581188815735,59.592047946494986,76.428141038231,97.11201478103963,116.42971050711107,129.30907911449336,132.14230527733932,123.75425377880018,105.75724947063922,82.19335423795833,58.552191859324054,40.415738862389055,32.07786443530198,35.49077065674285,49.802620832016004,71.59541772061101,95.75116850711893,116.71606324696099,129.83725478832648,132.43819562416175,124.37562014677646,107.96179447324901,87.30009465777042,67.22728743606875,52.14483080881956,45.033754473153756,46.883539204693044,56.64559816581069,71.68079415496365,88.54586308861849,103.88783848764974,115.20589094321922,121.29494569475382,122.2868969190923,119.32274977063918,113.98976715171388,107.71453984692793,101.30236877752964,94.75798484134182,87.4304079189515,78.42299687996744,67.12801734470149,53.70609744770716,39.34550359337433,26.199291372553308,16.991957608528303,14.38450486566995,20.26054510007778,35.12534988192329,57.78672463675753,85.41703387771604,113.99896764443824,139.05986500058322,156.52674171291642,163.50560383116482,158.81088974513307,143.13672545534024,118.85210215193506,89.49219643869793,59.083706231814965,31.467209685228582,9.760081197565501,-3.951992148199567,-8.679624528611196,-4.402803942157683,8.153068696235339,27.73734899998277,52.71885620722923,81.13555900747424,110.68556584221963,138.73469172926383,162.42336865461084,178.92740773572234,185.87093934758568,181.82396329017777,166.76313460755247,142.35275192536182,111.92436119421072,80.09580153472336,52.05914601717844,32.65845028355138,25.44593887696463,31.928970808203506,51.190654637919636,79.98915697101268,113.3335041579993,145.42363886163042,170.75783528980278,185.172458505611,186.59652523006676,175.37144591800833,154.08626894430182,126.98529000803931,99.0925947119092,75.2469578589302,59.24286879177882,53.23262303335387,57.47529594874631,70.43991836559006,89.20202809287836,110.02839874377598,129.0295342310827,142.77054791194547,148.758996718879,145.76203258020706,133.9350685410049,114.76564420169427,90.84891560559204,65.51956666472842,42.37400576651983,24.7295896769318,15.083738195391536,14.650420086410117,23.05719539645812,38.275936620510755,56.831095011793686,74.28282156157267,85.92709451641335,87.60365270028024,76.46887804948858,51.58524449565195,14.206162938201345,-32.30941363044465,-82.94577114989666,-131.762902947849,-172.77675272918611,-200.82464618195579,-212.26212778103155,-205.37845924207582,-180.48073326859972,-139.66519889346853,-86.3530243883219,-24.704117664409495,40.96968376083659,106.68969667528765,169.1299468219714,225.7536121713586,274.7909487405106,315.1122633797739,346.0606526580392,367.3028970417953,378.7377953759547,380.47600809335177,372.8812842980417,356.64498654442554,332.8573559994258,303.03993489821335,269.1126797284522,233.28366258336018,197.8660808077428,165.0432922892575,136.6158908629221,113.77293459065034,96.93080635704658,85.67658854146711,78.83819393420397,74.68232090221815,71.21663141875108,66.54924436530997,59.242291177002066,48.59142838857464,34.77315911157902,18.825339183931344,2.4596070231161753,-12.259786166645329,-23.30651253701583,-29.07220492572716,-28.658253792928086,-22.022278706121863,-9.95580826463993,6.091873918484071,24.295517179774752,42.77340951914142,59.87483462492589,74.3815380161984,85.59684565636584,93.3270845550812,97.78557356577338,99.46219842536067,98.99977049479865,97.10362214254417,94.49012069405256,91.86055501188858,89.876407161306,89.11384582889498,89.98852207792426,92.6611352278945,96.95206552804358,102.30234751438148,107.81348653026144,112.38022033784829,114.90313664475417,114.54000206816306,110.93542408863074,104.36478964989247,95.74354041034645,86.48370390906116,78.21847653177126,72.45219139740607,70.2163475445211,71.81606944586147,76.73248771434184,83.71046662523369,91.01610791669675,96.80677126388994,99.52844558373897,98.24851817135439,92.84802037996766,84.03185646547534,73.15959726408981,61.94158575523328,52.07537258905778,44.90832571963956,41.20210229806905,41.046361796561875,43.93076627156434,48.94535175202348,55.04965743602705,61.33750936133489,67.22935187560117,72.54628149443599,77.45302828931365,82.2926226842598,87.3647573269956,92.71533845506256,98.00266997692711,102.4864896895238,105.15390502655349,104.95905560692198,101.12023730766296,93.39767684355373,82.27337057656574,68.97278658128626,55.30369175095193,43.3323184291918,34.96063046619104,31.49962544998654,33.343438319707566,39.83294583710366,49.357892866820656,59.69080055107427,68.48757189994386,73.84296380076461,74.76721132308256,71.4604565398982,65.30415679939539,58.55493604252347,53.800765832925066,53.30360900338529,58.3892358076358,69.04255481148446,83.82353564530952,100.14331062266064,114.84996818933678,124.99129275248337,128.56921520226456,125.09321302582998,115.78164720333949,103.34270706913419,91.37077503755556,83.49357610860078,82.47454243963941,89.49421912763286,103.79726763118022,122.80534046169831,142.68160060606195,159.21829855109033,168.83438728907578,169.43809125547875,160.93893437403648,145.2786817887319,125.9700022860215,107.25486153541071,93.09047037903247,86.21374402136516,87.5145856494163,95.86916891687937,108.46728633954136,121.5432089706758,131.3198300544912,134.92643460966494,131.06323692303684,120.25653849658778,104.65695759083846,87.45052160536694,72.04747667475824,61.262358212086646,56.69020086469095,58.422362762196514,65.15003202093543,74.60098188792249,84.17328994004853,91.58922076883029,95.40167556914272,95.23850856287079,91.74952642768326,86.30298648572881,80.54019019171204,75.92293320985145,73.39467003992418,73.230052289315,75.08528386210087,78.20322925598886,81.68926917681699,84.76573576400723,86.93381973463273,88.01224064185938,88.06705111875908,87.28152110684701,85.82853237548373,83.7979329375244,81.20310727869436,78.05587656439768,74.47001543249522,70.74111755859823,67.35851521186116,64.93030080417309,64.03567947747283,65.04839172186644,67.98967856930126,72.46457342492036,77.71171391827285,82.76231368474456,86.66978405675326,88.74837579081738,88.75494416350396,86.96313208237193,84.109423816719,81.22561298632816,79.40172015161038,79.5389521551099,82.1503116475079,87.24936747612959,94.3419300604193,102.51034399795537,110.56248542571285,117.21154888999543,121.25736561929105,121.75034083588663,118.12905653603302,110.32678178269362,98.83930279130809,84.73899658512282,69.61387436213593,55.41224966451516,44.187154325835984,37.760207641792924,37.355235989436494,43.278084166412185,54.72930367897179,69.82289750603678,85.84583593992502,99.73624371320294,108.697337474335,110.81661411012979,105.54163417320942,93.88377144058298,78.27836876412661,62.11111337970669,49.00570606357843,42.03351934434521,43.0327077973388,52.20274109859037,68.07428533979534,87.8606769853042,108.10033909595846,125.42613740001953,137.268225765686,142.31924956924726,140.65930931942142,133.53270025837105,122.86286652341046,110.65950177301147,98.49344568417986,87.18557051462,76.78483776311003,66.81923615925008,56.71920109216555,46.26111351843185,35.873885592196245,26.69591472669939,20.34942852513889,18.490401126810795,22.26744393321824,31.858976543438633,46.24336785395955,63.2942198943506,80.20028011662811,94.11289150088274,102.8518784886001,105.47483110151981,102.54393360716867,96.00201557046141,88.6747506685481,83.52006766228484,82.81964592084812,87.52951439698477,96.97016766497566,108.94985739425874,120.3007378005772,127.69652714625433,128.5426345804762,121.70642575162857,107.89333340571353,89.56424679071297,70.40740663013958,54.49301022623385,45.32040849138436,44.99512478516086,53.73868387266671,69.84826363984946,90.10846643238195,110.54442847281581,127.32330861873955,137.5808907440245,139.97774693011695,134.86600878793107,124.05189495042718,110.2415698989552,96.33240456325731,84.73919452178546,76.92075893047506,73.2058182284496,72.92870027359048,74.80087452874119,77.38679598813539,79.53694716972693,80.65866212296075,80.76597534312917,80.32301950095517,79.95899932139262,80.16729462018965,81.09753851338893,82.51031229787016,83.90306439798692,84.75344754539255,84.78299584836971,84.13449628140417,83.3839577394092,83.36482013473015,84.84975585836393,88.19217067982316,93.05563001386409,98.34440728200862,102.39399398235257,103.40090722343517,99.9898816469348,91.75856463757731,79.6254236691792,65.84371819966186,53.62687836306485,46.43791580645848,47.098552680256915,56.94245705726741,75.24911510251938,99.14212231023667,124.02817481129091,144.51581857123517,155.621571635269,153.98121303210135,138.76268815743265,112.03353029945363,78.45999591279492,44.37714139239373,16.429313550776552,0.09584120577085059,-1.5437546274211396,11.499570063774232,36.15353608171654,67.03244177077562,97.72266148601332,122.28811439232318,136.62123366025605,139.30432048190957,131.7725142684084,117.75068230115393,102.12530463535249,89.55896135980699,83.22028285000086,83.96796120143229,90.20310284940356,98.42239011177291,104.3142249309606,104.09246124182656,95.6973872421692,79.52900534090207,58.50354937551187,37.40675794611437,21.70701072410766,16.137159218834917,23.416918759828825,43.451735264713946,73.21976434485777,107.38031954982328,139.4525919210588,163.27152443206293,174.36375233224425,170.91522581031992,154.112086379903,127.79630949301755,97.54418500659004,69.40651044359538,48.61400820959675,38.53853396455232,40.11992186378532,51.84557155466768,70.23921249794253,90.70895807262409,108.54494080734766,119.8507198522272,122.23383771236183,115.15152848081217,99.88693496659293,79.20079149542951,56.751469716641736,36.39989167608439,21.51819266602719,14.408675803071416,15.918381099212816,25.30770597578657,40.398781019436306,57.99039625829552,74.4817867568382,86.60321732657097,92.11669665140168,90.33731182218553,82.34447755943447,70.80641884205406,59.42342294904311,52.08910877394264,51.94971264050891,60.58502965418282,77.52372494173383,100.23690989932223,124.63998960602521,146.00210753570002,160.04961350844346,163.9887171738136,157.18276703760938,141.302668226502,119.90483349929954,97.54349466490126,78.65046088780026,66.47918570335608,62.391798262755955,65.67168152677476,73.89672440576499,83.75163719711752,92.03692106255141,96.58191784146457,96.80430123450054,93.76728168521693,89.73629124897589,87.38391882627994,88.89244677729187,95.22796175864545,105.80267919448335,118.62127070655316,130.8597898668415,139.69666452789406,143.1425772542208,140.62065220930535,133.12710640404293,122.93047698411597,112.90522953644945,105.70170661646752,102.99795103387301,105.04866161913552,110.6533790637247,117.53965596278164,123.03602240347152,124.82942595845985,121.58508210776935,113.25542160501655,101.00229464538873,86.77175085865805,72.65910253196552,60.255748675750795,50.16510733187658,41.81789210379042,33.62656560111024,23.4238849849802,9.058203260533416,-11.01249064734076,-37.27046508971195,-68.92293664108176,-103.9436596526593,-139.329791439487,-171.49220601831323,-196.68839160027548,-211.4258458764915,-212.7985025931891,-198.7522955692444,-168.29540855206784,-121.666974961557,-60.45856998815896,12.343504283466412,92.44571556691955,174.5135384326581,252.6384694293504,320.98007372023574,374.50182898411765,409.6743679950152,425.0016547140622,421.24443619114754,401.2699685150927,369.5361196586236,331.3009314982006,291.71433858658577,254.97796324894614,223.7439896236563,198.86803559487117,179.54824431567192,163.79485649051716,149.1033231156926,133.16659842542597,114.46603421466199,92.62154999496718,68.4473232472029,43.73116589619495,20.81554467026604,2.0928376707522163,-10.468627577439028,-15.674555026736869,-13.278383021580641,-3.9723413500065927,10.772117087921496,28.959332187105332,48.35949767983978,66.78324043105243,82.30862079923905,93.44814113021974,99.2579552120751,99.39809472566604,94.1512483789115,84.4015595054029,71.56826073830979,57.48606271253133,44.22694395854652,33.86726158884709,28.21724976075996,28.544263839609968,35.33210269463801,48.12316200851535,65.48546700800314,85.13224290364936,104.19878199971271,119.65292090996489,128.78638840152766,129.71011810024086,121.76335744815844,105.7490309384259,83.92843254126828,59.74629114337819,37.307349234287344,20.67853495130364,13.135773900208045,16.499579769567408,30.700573151891675,53.68192968463161,81.6845467753212,109.88362652907611,133.26864433067524,147.60019747102484,150.25148577632643,140.75784017545038,120.95265618280922,94.65205505365388,66.94472809095903,43.22691227049065,28.175837197452587,24.86651718137553,34.20408408882576,54.77543699641367,83.13600958430422,114.46047847636538,143.41892168886355,165.10561487261214,175.85054701187187,173.7799382825841,159.0494114027603,133.73840585316498,101.45199290624358,66.717254198881,34.28132326776418,8.418418593420006,-7.66114248746064,-12.229669840558145,-5.244106476206608,11.687179033448778,35.56582607600006,62.46068615377262,88.10317338966983,108.54022204399568,120.74819205412501,123.10719723152557,115.64889057728045,100.02320127449138,79.17817333883127,56.80309724056959,36.63665041007146,21.775504664519257,14.12448210073818,14.102910680782163,20.667347396285432,31.640317970653335,44.26486471100436,55.85316299093099,64.37792481612196,68.87271565012963,69.55769662145318,67.67710089201314,65.10589958220375,63.83673584209715,65.48091975445197,70.90412132759771,80.07370115154315,92.13363042404518,105.66266576673252,119.02840241553733,130.73495346488085,139.67753038169207,145.25603482069667,147.34835865657473,146.1865596582532,142.202616471414,135.90837516754112,127.8493992078641,118.63440257346282,109.00494298666179,99.88786628588608,92.37415332561528,87.59261044536416,86.48779133234956,89.55444559064006,96.61018385142344,106.6924458550247,118.14051079607289,128.87411213953723,136.82051207880156,140.39013680607462,138.87418339689046,132.64678950207363,123.0995640842133,112.30698133269433,102.4979680680136,95.46946936887211,92.10286485686743,92.12406550123983,94.18597798769154,96.26360521761299,96.26151426940358,92.66718915112389,85.06224958158028,74.33542337529127,62.519806297920056,52.281938502050274,46.19226322106326,45.976139077829785,51.96014323043604,62.882764233849905,76.1423495335567,88.43382894500928,96.6129770548336,98.55532644672775,93.76885538180154,83.57956083103795,70.8227465975522,59.10941329064592,51.85870912979906,51.35901139486781,58.119413706277385,70.69887099511953,86.0709036141061,100.43282647107485,110.2420784424873,113.19438765245157,108.87008204929323,98.8637785557964,86.355088364331,75.23438713446376,69.02356932336144,69.89102142810239,78.03546615729333,91.61066143844346,107.21158969704402,120.78535118731747,128.7114424582308,128.75048287573446,120.60070651929018,105.91550659761047,87.79015132100699,69.87633653143122,55.38597501937074,46.27130844898267,42.81040944428759,43.70326763562293,46.631328684592525,49.09748012495742,49.28411617303604,46.6667234775466,42.19851429345372,38.013745326570245,36.74353035827735,40.65439455078732,50.87232898581201,66.92845555765446,86.76575419934123,107.20905381251744,124.76410758101855,136.51601384260795,140.87075012001196,137.93209039718744,129.41460202689143,118.12807369788078,107.19001694588836,99.19533888858957,95.57631830412117,96.32264890920278,100.12137748920165,104.85384501448499,108.28765749548703,108.75405135702039,105.61649575579489,99.40723472268692,91.61147372599174,84.18183071357453,78.93877177797097,77.03623068352525,78.64188879248712,82.91069541352887,88.2416515838923,92.72890805363093,94.67091560681212,92.9968169231289,87.5049218384345,78.86966456224273,68.4403139253852,57.90675859735454,48.93163306358747,42.840553011834025,40.43020877829411,41.91115298165678,46.96338543925126,54.85992929829748,64.61087696461672,75.09452232107776,85.16421394285359,93.73882488675667,99.8929346857383,102.95723763710501,102.62403232020301,99.03493174253161,92.81713947640476,85.0376171322834,77.06202879803394,70.33280020174065,66.1084085263603,65.22409250372655,67.93465552511593,73.88154489232122,82.19337120173748,91.69202449261968,101.14704671943151,109.50889152963938,116.06133148229051,120.4612710216032,122.67158386043295,122.82687464883047,121.09169518209865,117.5692222327509,112.2966212210889,105.3283070182854,96.87254402608623,87.42270367529359,77.8205617587967,69.20746492917826,62.854434747175574,59.90309802189074,61.08248552587337,66.48116694831968,75.44471833454521,86.63744680020503,98.263757440037,108.40148374606959,115.3697046656995,118.0453405066169,116.057864640587,109.82482283062161,100.43159558129855,89.39537587940578,78.3754795256195,68.89545395121559,62.128206124350434,58.7704542822839,59.00658349370136,62.542743241876515,68.68489633539619,76.43914864028696,84.62423072841182,91.99737006034405,97.39905827068954,99.9164805009662,99.0508586288087,94.85670049367907,88.00969686290095,79.76187681832404,71.76136940784862,65.74741906757103,63.170553439219844,64.82108841140578,70.56414268514958,79.2676589893131,88.97110222288823,97.28372365735983,101.93721573074994,101.36661587769277,95.17123184200405,84.32372372918275,71.04968256836055,58.38012579648428,49.46571540740168,46.81081387027505,51.617563594523176,63.41410207552718,80.07769297883087,98.26771925130309,114.17873827092932,124.43741080667493,126.92325127220631,121.3045132760345,109.1464934456918,93.5544533272748,78.4308273908329,67.5259518999944,63.51721468771783,67.34754818924979,77.9910004202481,92.70652499234107,107.71806107886336,119.15146591401817,123.99452262539465,120.84153619447936,110.23974469287559,94.55603796081252,77.40277062668721,62.76955389894059,54.076777304376805,53.37974250527565,60.90845325396165,75.04018840337643,92.69459741426991,110.04166272911112,123.34582747158156,129.7495211147531,127.8276526085883,117.81010327781797,101.45276440946944,81.61646489920263,61.669310302851734,44.8502407871377,33.72025958815446,29.79065560140043,33.368308892669916,43.61097801662225,58.75087111922668,76.42729444486183,94.06730266266698,109.26130670355182,120.0915764729014,125.38102054456746,124.83609309754004,119.06359590644892,109.45074972542771,97.91425190560402,86.54744896521963,77.22067321311155,71.21042523955695,68.9396668065827,69.89761036552376,72.77243735260407,75.78048332170843,77.1229747058396,75.46164755073899,70.290721263304,62.102127661731984,52.29077595643276,42.81538447070219,35.69903057643269,32.50210014917437,33.9130690100777,39.57412733966675,48.19506768414954,57.92738340368751,66.89470920873642,73.72798702180692,77.94927422657125,80.08944955086763,81.50130969754727,83.91890992574642,88.8900360398804,97.24884841915629,108.78688343971805,122.2248010946419,135.50019189313778,146.29362480842175,152.6440422741906,153.47647673634452,148.8891604710809,140.11671462754492,129.18085612684487,118.33208671291887,109.44750788783624,103.56254251904294,100.67381094459775,99.86830365746962,99.73457832187133,98.92489553434974,96.68919340778406,93.20758017652183,89.60714358789951,87.64422108846418,89.13713689964503,95.31565807782644,106.2871070231756,120.79402382754424,136.3595753620237,149.8068874211924,158.02771205724258,158.79702990284798,151.4067967897277,136.93289907365192,118.04431133895507,98.38712850128339,81.69441723082467,70.85214770427531,67.16904195175165,70.0474753011009,77.14681334411166,84.99825959918265,89.90740773109428,88.90191730296303,80.46902754247391,64.88524584563928,44.053246467662326,20.89778877037495,-1.5043192601865254,-20.81018089114065,-36.05702833920101,-47.87884515733799,-58.223532945142196,-69.64167617712158,-84.34109738246788,-103.27245706696378,-125.5097344936128,-148.1155933788457,-166.55477216047976,-175.57296333466584,-170.33399353051118,-147.53777608122866,-106.24437112863383,-48.20424990146526,22.379427757047363,99.58859470979662,176.83955738348158,247.98813058067955,308.2371194692096,354.6606515219395,386.27238267948263,403.6880930615195,408.53334089236233,402.7965782240482,388.3163251729246,366.52569364047594,338.48065055973115,305.10206026398,267.49493874756104,227.19147353666895,186.20034302527134,146.82045666519593,111.26637962964836,81.22577790062097,57.5014562339597,39.870698156751615,27.228300282860936,17.987709411083994,10.62665752517799,4.208880092351898,-1.2887168933455055,-4.960860330038436,-5.29395796395586,-0.7378893972994195,9.639959327044872,25.62499193989961,45.63075489332313,66.87660282154457,85.94687929797887,99.593226354922,105.56056135374807,103.19874426650806,93.67401744717603,79.70390105087522,64.87509081467104,52.72645667908286,45.85099371240868,45.26956699724824,50.25346148612639,58.643676707675624,67.56987174590593,74.35400962398406,77.32848809550978,76.32356655536502,72.67755698725647,68.76706774724194,67.20087041362014,69.92552988871955,77.52169720098907,88.91654441408171,101.61478100139072,112.39419453015063,118.26795381880862,117.42862730614388,109.88524444842088,97.58732421110948,83.97592638312952,73.06929105529326,68.33072701697252,71.63754182355618,82.65022320539644,98.77531181992913,115.75249452849175,128.72266520996163,133.49792625548795,127.69521084120589,111.42884232966155,87.37430844898915,60.18263393092712,35.3961837554193,18.14509891604629,11.955509270370587,17.96413081162972,34.721309440791295,58.608893640492184,84.74354810238333,108.12114748300453,124.71217669234152,132.24883158235315,130.53939078481653,121.27471323074101,107.4195927069994,92.3751531949334,79.136414261472,69.64728596757683,64.48528663773932,62.91319492331124,63.24180083734096,63.38016879220844,61.42118965515138,56.12214530296465,47.183803632382705,35.29129518851307,21.93815377183641,9.098206299908158,-1.1692811508104428,-7.09716421419502,-7.505014113516494,-1.9718492210128997,9.12465740979905,24.69203851829096,43.10460302922277,62.4489611412738,80.79651748699182,96.46540168244213,108.23662715391994,115.49461552733503,118.27207986476363,117.1932426059735,113.3268405238989,107.97746579304227,102.45645996034771,97.87766346465473,95.01663156559631,94.25549765632408,95.6133496753427,98.84000441059362,103.53621697539742,109.25997564877447,115.58802628915335,122.12121019347458,128.44527429767706,134.07777471932633,138.43980853501392,140.88521102182233,140.8006643685308,137.7632958679933,131.71666982443898,123.10983212220627,112.94389450676314,102.68822060089602,94.05998990421669,88.6988285633967,87.80173735485519,91.803053802775,100.18317937179054,111.46699332348562,123.43283839495666,133.5047264837944,139.25577793375305,138.92023392275462,131.8031949914721,118.49335140935857,100.82217100519186,81.56471633026655,63.93198799332705,50.95063819265201,44.85317496457117,46.60423037272954,55.66549943706524,70.05669530185665,86.711701355648,102.06850000960857,112.78106060582084,116.41144495220165,111.95833270067554,100.10572886276749,83.12906655991235,64.46529000329345,48.025412396061974,37.38672516984547,35.033807783374684,41.813538241835,56.72836720940669,77.12101550855083,99.21733312096931,118.9118367566411,132.6222366251879,138.02032905433714,134.47333943202594,123.09751015308028,106.41887121930205,87.73205583406616,70.32204198719204,56.74608368527459,48.3540720702688,45.15923203815545,46.07424448971399,49.426729474598034,53.590360401079984,57.53642720497217,61.135483488925736,65.11411856379638,70.6775864365226,78.91495058435608,90.1781004724314,103.64574040687059,117.2399459845562,127.96532126935736,132.6154648956016,128.67384019669518,115.16143604890931,93.17637040070035,65.93715861192312,38.26678423620358,15.606525610747662,2.7848307538222747,2.8481776314035607,16.26202677019554,40.70663141737971,71.54435849303945,102.86070954237046,128.82744987350725,145.0460068766879,149.52878272485574,143.06735797789267,128.8962300047656,111.74639202464927,96.54431836342994,87.10459025956044,85.16326407662507,90.00400764141783,98.76641606972923,107.3402927883296,111.5916904514306,108.57994866216632,97.43196744022337,79.63815290618156,58.695536512364576,39.20243957738106,25.65641354869937,21.28325247002252,27.209981018478437,42.19534178145184,62.9762081215774,85.12168633085473,104.15421782641367,116.6341037698589,120.92520111072686,117.45665451335329,108.4387988015384,97.13978732002296,86.9421117571496,80.4456486887892,78.855675305948,81.80242444401206,87.61100904157406,93.91466173465038,98.4153165216923,99.56624867642972,96.98736912676924,91.51107322673332,84.86807130130694,79.12537678830115,76.05372505700919,76.61227882924045,80.6944457772226,87.19521243152077,94.36355696887257,100.32218102918266,103.59388900117136,103.48037101094367,100.19058080164761,94.69584447468685,88.37183051415424,82.54909275302965,78.11633330226091,75.29822446952682,73.6706539924699,72.39945832386151,70.61795396911121,67.81513861330654,64.10344604540363,60.27290244714605,57.60574370394165,57.50127143679553,61.02197085263483,68.4998849657172,79.32840562366401,92.0125212975021,104.47565091272696,114.54565834896334,120.48867189800085,121.44330482970955,117.63455601421946,110.30815645227663,101.4046686763689,93.06491273218501,87.1035893445962,84.59297900013391,85.66294326382358,89.55804582299524,94.91786676868792,100.18488456536848,104.01368065396251,105.56455441801593,104.60907655672838,101.44017731413936,96.64314058789975,90.8263029731309,84.4171486846927,77.59942624586573,70.4100305475572,62.95044907665496,55.61841358216186,49.24928156998149,45.08060320732265,44.51148533095031,48.70267290307143,58.12946361595065,72.23428845645043,89.31471914761404,106.72513318494643,121.3811728083124,130.46076983802342,132.12356663575775,126.04614518319384,113.60510613670115,97.62693628440863,81.74109129870014,69.48760132002697,63.40922774157037,64.37564791541546,71.33531318875104,81.58098214698981,91.476194451497,97.46033266372574,97.0660659630964,89.67026388359946,76.76305984731698,61.64466669850662,48.612230586236834,41.838665752866724,44.233130984265706,56.58458415913647,77.22102177032905,102.28591723537345,126.57429115711241,144.72641291608986,152.48488709780662,147.70523945992835,130.87392619423997,105.01319770061872,75.00586339994364,46.514287807666086,24.760861466609683,13.459863085990365,14.139912585822701,25.988365256533672,46.214680842997005,70.80488830050238,95.45517863186318,116.44875207836179,131.27797724198294,138.8995236692603,139.616872702739,134.68205149576642,125.77107548007108,114.50076228955716,102.11867544980863,89.42691462690003,76.91770706137392,65.02948191221911,54.39657479655395,45.97357891167628,40.96233875293127,40.541250020979,45.46965756551015,55.692530554401046,70.08547668716481,86.45160084300323,101.81686676163996,112.98680896235305,117.24801413164951,113.04569381957425,100.45953331307015,81.33857152357388,59.033799396987376,37.76522794152924,21.75375866535333,14.312619649382526,17.111095605791284,29.788731014784805,50.018925834347336,74.01528458202183,97.36811224000185,116.01845560923982,127.14267253230243,129.7406967022111,124.7915866317611,114.94319412593916,103.81445457086325,95.08140329639052,91.5691579082025,94.56943768159216,103.5474104224662,116.30626968678469,129.56600031783586,139.81168276711892,144.20064185973874,141.30322561674828,131.4922803034172,116.88219693607371,100.8290037158938,87.11154239866993,78.99391787583492,78.4009994436766,85.41390437024225,98.21583311060228,113.50879613824974,127.30511703214775,135.90260849915174,136.80331122508275,129.34578345553652,114.8888759986788,96.49510133187265,78.18747658831984,63.963248511148464,56.81299250929469,57.995960955482,66.76003853882706,80.58148215011104,95.86404983926502,108.9139116988764,116.92969721268224,118.73778109655903,115.06647308965583,108.2745724249616,101.59853615964418,98.11855108855515,99.72923857546262,106.40978026785508,116.01575157004042,124.67752904646068,127.72391263757905,120.89954143442226,101.55384200369281,69.4746867111185,27.12659137073623,-20.790381149258423,-68.36050417492235,-109.7889785176167,-140.7008524547309,-159.05253186595945,-165.40909504620177,-162.51475504263115,-154.28121095979498,-144.4837337439508,-135.53952392420675,-127.72196781611039,-119.04191302937012,-105.83715650569168,-83.90763164331072,-49.87487376779693,-2.376738433011613,57.24784368992251,124.98587918520865,194.88920711153057,260.3237278318897,315.3844184525145,356.08913233172444,381.03379219587254,391.35226284851205,390.0283423456871,380.7933949533915,366.95648001717933,350.5211574687712,331.843542126688,309.9108676858933,283.12301817679736,250.3015837257785,211.58026071286145,168.86867241950077,125.71640016147495,86.59426563741603,55.796207122750666,36.29030873189375,28.872027347641225,31.88850305473596,41.63471268000211,53.3213078441368,62.34102336742204,65.46876130927376,61.64781229595422,52.13697046316652,39.983170050127974,28.98541123858916,22.466724847489,22.226726336732565,27.990753757527088,37.51999493275501,47.345786770578314,53.90093036892818,54.698941337592004,49.19504677529571,39.05579487431287,27.740320888917,19.502657832658148,18.100838982068662,25.591817324272796,41.57424456479477,63.11817032666373,85.42684480204123,103.06677098294924,111.43754788104165,108.07951445980157,93.45544598712874,70.98138007586844,46.28234533335544,25.855567188363313,15.4809430967105,18.784062292350413,36.315470008094664,65.374440326321,100.61402920727531,135.268127014899,162.69143877227606,177.835986298048,178.3168585596051,164.83322960090217,140.87586515616448,111.82534911619253,83.68300011316902,61.74759084503922,49.542545555078696,48.21828003833029,56.52727203196547,71.32967838364075,88.46883540109681,103.785167143124,114.02634483446127,117.45762920686582,114.06356661655678,105.33627187037166,93.74073590067701,82.0131284095954,72.47171018644829,66.50019433625025,64.30896716145641,65.00589481540439,66.93376985060306,68.17260955009775,67.07441754302407,62.69956517227969,55.05585884681846,45.093573627719906,34.469852943496846,25.149268215731773,18.942340797077875,17.09346631587634,20.01240245564754,27.20514927971244,37.41006369814806,48.89624977826889,59.84527077153638,68.7223139112631,74.55213634556365,77.04474059236347,76.55748355778856,73.92261403767152,70.20066027748881,66.43260468329883,63.45511362497947,61.81644192527343,61.795086579265494,63.489757398940604,66.92821592662867,72.14043802883653,79.15905308581058,87.94082574836904,98.2373899679375,109.4696333817648,120.66849238213433,130.53163656341854,137.61287318153938,140.61851887703057,138.74504021112068,131.96774947916384,121.19058021406809,108.19380425652518,95.3645453295456,85.25165023167091,80.03684350538138,81.0432784818924,88.401802005428,100.96310096500214,116.48777660358847,132.0803414900297,144.77398835357766,152.13597043326308,152.75812444658902,146.5244215090489,134.6006394443172,119.15606961907486,102.88794759539648,88.46087251548026,77.9870283041696,72.65653282060663,72.58643784607378,76.90330132210005,84.02123195788948,92.03747308805718,99.14899455373867,103.99852342215087,105.88367726968929,104.8000931666546,101.32955864107173,96.41716308391204,91.101107938069,86.26226719127895,82.44874387827458,79.80773231353938,78.12910221855182,76.97853327015572,75.878399887476,74.48563742014451,72.71904301166174,70.80261402433483,69.21381044414372,68.55057804165868,69.35318087739012,71.9306073597508,76.24263598108793,81.87610097755545,88.12959947384154,94.19013065372609,99.35609105617047,103.24208622346559,105.89901329395641,107.80056473032526,109.68253021023096,112.26518281442999,115.93040608817289,120.45057886941665,